-0.107,-0.044,0.063,0.076,-0.085,0.0095,0.1925,0.216,0.204,0.253,0.1705,0.1795,-0.118,-0.065,0.0745
-0.0975,-0.04,0.0575,0.069,-0.078,0.009,0.192,0.2165,0.206,0.2545,0.1725,0.1805,-0.1165,-0.062,0.074
-0.0925,-0.0335,0.059,0.063,-0.076,0.013,0.192,0.2155,0.2055,0.2535,0.173,0.181,-0.1145,-0.0555,0.0725
-0.0915,-0.0285,0.0635,0.0605,-0.078,0.0175,0.1905,0.2135,0.204,0.2525,0.1715,0.18,-0.114,-0.049,0.071
-0.0865,-0.0225,0.064,0.0545,-0.075,0.0205,0.1895,0.2145,0.2055,0.253,0.1695,0.1785,-0.1145,-0.045,0.071
-0.085,-0.021,0.064,0.053,-0.0745,0.0215,0.19,0.216,0.206,0.253,0.171,0.1785,-0.115,-0.046,0.0705
-0.089,-0.023,0.066,0.056,-0.0775,0.0215,0.189,0.2165,0.206,0.255,0.172,0.1805,-0.114,-0.049,0.071
-0.092,-0.023,0.069,0.0575,-0.0805,0.023,0.1885,0.2155,0.205,0.256,0.171,0.1805,-0.1135,-0.05,0.0705
-0.098,-0.0245,0.0735,0.0615,-0.086,0.0245,0.1915,0.2155,0.2045,0.2555,0.171,0.1805,-0.1145,-0.046,0.068
-0.0955,-0.0235,0.072,0.0595,-0.084,0.0245,0.1905,0.2145,0.2045,0.2545,0.1685,0.179,-0.1145,-0.042,0.069
-0.082,-0.018,0.0645,0.05,-0.0735,0.0235,0.184,0.2125,0.2035,0.254,0.1685,0.1775,-0.1145,-0.045,0.0705
-0.0825,-0.02,0.062,0.0515,-0.0725,0.021,0.1825,0.2145,0.204,0.2535,0.1695,0.1775,-0.115,-0.0465,0.0715
-0.088,-0.0245,0.0635,0.0565,-0.076,0.0195,0.1885,0.218,0.2085,0.2565,0.172,0.1815,-0.115,-0.045,0.0725
-0.0885,-0.0255,0.063,0.0575,-0.076,0.0185,0.1905,0.2185,0.211,0.2575,0.173,0.1815,-0.116,-0.051,0.0715
-0.088,-0.0295,0.0585,0.059,-0.0735,0.0145,0.19,0.219,0.2115,0.258,0.174,0.182,-0.115,-0.0565,0.072
-0.092,-0.0315,0.0605,0.062,-0.0765,0.0145,0.1915,0.219,0.2125,0.259,0.176,0.184,-0.1155,-0.0575,0.072
-0.0915,-0.0295,0.062,0.061,-0.077,0.0165,0.191,0.219,0.2135,0.2585,0.1765,0.183,-0.1155,-0.057,0.07
-0.0895,-0.0335,0.0555,0.0615,-0.0725,0.011,0.191,0.22,0.2145,0.26,0.1775,0.1835,-0.1125,-0.0555,0.071
-0.0915,-0.038,0.053,0.065,-0.0725,0.0075,0.188,0.217,0.212,0.258,0.1745,0.183,-0.113,-0.0565,0.0725
-0.0945,-0.0385,0.056,0.067,-0.0755,0.0085,0.1905,0.2195,0.214,0.261,0.175,0.185,-0.1135,-0.0625,0.0725
-0.096,-0.038,0.058,0.0675,-0.0775,0.01,0.194,0.225,0.2195,0.2645,0.1785,0.1885,-0.113,-0.0635,0.071
-0.09,-0.032,0.0575,0.0615,-0.074,0.0125,0.1915,0.224,0.221,0.2645,0.1785,0.1885,-0.112,-0.0545,0.0685
-0.088,-0.0275,0.06,0.058,-0.074,0.0165,0.191,0.2245,0.2185,0.2645,0.177,0.187,-0.1125,-0.048,0.0675
-0.0815,-0.02,0.0615,0.051,-0.072,0.0205,0.1885,0.2235,0.2175,0.2615,0.176,0.186,-0.111,-0.0425,0.067
-0.0805,-0.014,0.0665,0.0475,-0.0735,0.026,0.189,0.222,0.217,0.2625,0.176,0.1855,-0.1105,-0.039,0.068
-0.083,-0.014,0.069,0.049,-0.076,0.0275,0.1875,0.2225,0.2165,0.263,0.178,0.1855,-0.11,-0.039,0.0665
-0.0855,-0.0145,0.071,0.05,-0.078,0.028,0.186,0.223,0.2195,0.264,0.1785,0.1865,-0.1095,-0.0415,0.0675
-0.088,-0.011,0.077,0.0495,-0.0825,0.033,0.19,0.2265,0.2215,0.266,0.179,0.1875,-0.1095,-0.0375,0.0665
-0.084,-0.0045,0.079,0.0445,-0.082,0.0375,0.191,0.2315,0.2235,0.2695,0.1825,0.1905,-0.1065,-0.031,0.063
-0.079,-0.0015,0.0775,0.0405,-0.0785,0.038,0.187,0.2275,0.2215,0.268,0.1815,0.19,-0.105,-0.0305,0.0655
-0.0765,0.001,0.0775,0.038,-0.0775,0.039,0.1825,0.222,0.219,0.264,0.1785,0.1865,-0.1075,-0.026,0.0655
-0.0785,0.002,0.0805,0.0385,-0.08,0.0415,0.1835,0.2245,0.2195,0.266,0.1785,0.187,-0.107,-0.023,0.0645
-0.0735,0.006,0.08,0.034,-0.077,0.043,0.1845,0.2305,0.224,0.271,0.1845,0.1935,-0.1025,-0.0225,0.066
-0.0755,0.0035,0.079,0.0365,-0.0775,0.0415,0.187,0.2335,0.228,0.2745,0.188,0.1965,-0.104,-0.0265,0.065
-0.0835,-0.001,0.0825,0.042,-0.083,0.041,0.1885,0.2315,0.2275,0.2745,0.1875,0.196,-0.108,-0.027,0.064
-0.083,0.0005,0.0835,0.0415,-0.0835,0.042,0.19,0.233,0.229,0.2755,0.1895,0.197,-0.1095,-0.0265,0.0635
-0.075,0.009,0.084,0.033,-0.0795,0.0465,0.192,0.236,0.2325,0.2785,0.1925,0.2005,-0.108,-0.0225,0.0615
-0.07,0.016,0.0865,0.027,-0.0785,0.051,0.195,0.239,0.235,0.282,0.1955,0.203,-0.1075,-0.015,0.0575
-0.0735,0.0165,0.09,0.029,-0.082,0.053,0.1955,0.238,0.2345,0.282,0.1945,0.203,-0.1105,-0.0135,0.0565
-0.0755,0.0165,0.092,0.03,-0.084,0.054,0.196,0.2425,0.24,0.2845,0.1985,0.2055,-0.112,-0.0135,0.054
-0.0775,0.02,0.0975,0.029,-0.088,0.059,0.1995,0.249,0.2445,0.29,0.2035,0.211,-0.1095,-0.0105,0.0505
-0.071,0.0285,0.099,0.0215,-0.0855,0.0635,0.198,0.2495,0.2485,0.2925,0.2065,0.215,-0.1065,-0.0045,0.049
-0.0645,0.0345,0.0985,0.015,-0.082,0.0665,0.1975,0.2525,0.252,0.2955,0.2095,0.2165,-0.105,0.0025,0.0465
-0.059,0.043,0.102,0.008,-0.081,0.0725,0.1935,0.253,0.2525,0.298,0.2105,0.2175,-0.103,0.0095,0.0455
-0.053,0.048,0.101,0.003,-0.0775,0.0745,0.1875,0.2515,0.252,0.2955,0.21,0.217,-0.1005,0.0125,0.0455
-0.048,0.0535,0.1015,-0.0025,-0.075,0.0775,0.187,0.2525,0.252,0.298,0.2135,0.219,-0.096,0.0175,0.0445
-0.0425,0.0585,0.1005,-0.008,-0.0715,0.0795,0.1885,0.257,0.256,0.3025,0.2175,0.222,-0.0925,0.02,0.044
-0.0405,0.063,0.1035,-0.011,-0.0725,0.0835,0.1875,0.2615,0.2595,0.304,0.22,0.2245,-0.09,0.021,0.044
-0.036,0.0735,0.11,-0.0185,-0.0735,0.0915,0.189,0.2655,0.265,0.309,0.225,0.229,-0.0865,0.026,0.0425
-0.0295,0.0775,0.107,-0.024,-0.0685,0.092,0.1865,0.266,0.2675,0.3105,0.2275,0.23,-0.0855,0.0285,0.0415
-0.02,0.0855,0.105,-0.0325,-0.0625,0.095,0.178,0.264,0.2665,0.311,0.226,0.23,-0.0825,0.036,0.0445
-0.023,0.0865,0.1095,-0.0315,-0.0665,0.098,0.177,0.262,0.265,0.3095,0.226,0.23,-0.0855,0.0345,0.0465
-0.03,0.082,0.112,-0.0255,-0.071,0.097,0.1795,0.259,0.263,0.308,0.225,0.2285,-0.0905,0.034,0.0455
-0.029,0.0855,0.115,-0.028,-0.0725,0.1005,0.181,0.262,0.266,0.3105,0.227,0.232,-0.0925,0.0415,0.045
-0.031,0.082,0.113,-0.0255,-0.072,0.0975,0.182,0.2645,0.269,0.3125,0.2295,0.235,-0.0895,0.037,0.045
-0.0365,0.073,0.109,-0.018,-0.073,0.091,0.184,0.266,0.2685,0.313,0.229,0.2335,-0.0895,0.027,0.045
-0.036,0.072,0.108,-0.0175,-0.0725,0.09,0.1845,0.266,0.2685,0.3145,0.2295,0.2335,-0.0895,0.026,0.0425
-0.03,0.072,0.102,-0.021,-0.066,0.087,0.184,0.269,0.2735,0.317,0.23,0.2325,-0.088,0.029,0.0405
-0.028,0.071,0.099,-0.021,-0.0635,0.085,0.182,0.2715,0.275,0.3175,0.2295,0.2325,-0.0885,0.0285,0.0395
-0.036,0.0695,0.1055,-0.0165,-0.071,0.0875,0.1855,0.273,0.277,0.318,0.23,0.232,-0.09,0.026,0.036
-0.0425,0.0695,0.112,-0.0135,-0.0775,0.091,0.1905,0.2755,0.28,0.32,0.232,0.236,-0.0905,0.0285,0.035
-0.038,0.078,0.116,-0.02,-0.0775,0.097,0.1855,0.275,0.2815,0.323,0.2335,0.2385,-0.0885,0.0415,0.033
-0.036,0.085,0.121,-0.024,-0.079,0.103,0.1835,0.277,0.2845,0.3255,0.235,0.237,-0.0885,0.048,0.031
-0.0255,0.0985,0.124,-0.036,-0.075,0.111,0.179,0.278,0.2855,0.3255,0.239,0.2425,-0.0835,0.055,0.0305
-0.018,0.1115,0.129,-0.0465,-0.0735,0.1205,0.1755,0.2795,0.2875,0.3275,0.241,0.244,-0.083,0.0655,0.028
-0.024,0.114,0.138,-0.0445,-0.0815,0.126,0.176,0.279,0.2875,0.327,0.2395,0.2415,-0.087,0.07,0.026
-0.0295,0.1155,0.1455,-0.0425,-0.088,0.1305,0.172,0.276,0.2865,0.326,0.24,0.243,-0.0885,0.074,0.0285
-0.029,0.123,0.1515,-0.0465,-0.0905,0.137,0.169,0.276,0.288,0.3285,0.243,0.244,-0.091,0.078,0.0285
-0.027,0.1315,0.159,-0.052,-0.0935,0.1455,0.169,0.277,0.29,0.331,0.2455,0.2475,-0.0905,0.0845,0.0255
-0.0285,0.1365,0.165,-0.054,-0.097,0.1505,0.1635,0.2725,0.2865,0.33,0.2465,0.2505,-0.0905,0.093,0.0285
-0.02,0.1435,0.1635,-0.062,-0.092,0.154,0.1505,0.262,0.2805,0.3265,0.2465,0.2495,-0.0895,0.1025,0.032
-0.0205,0.1465,0.167,-0.063,-0.094,0.157,0.1405,0.2535,0.277,0.3245,0.2475,0.2515,-0.091,0.103,0.038
-0.027,0.1475,0.1745,-0.06,-0.101,0.161,0.1305,0.242,0.2705,0.3215,0.2465,0.2535,-0.094,0.1035,0.0435
-0.0315,0.143,0.1745,-0.0555,-0.1035,0.159,0.123,0.229,0.264,0.3185,0.2475,0.254,-0.0975,0.104,0.048
-0.0355,0.1355,0.1715,-0.0495,-0.1035,0.1535,0.1165,0.2175,0.256,0.314,0.2465,0.256,-0.099,0.098,0.0545
-0.034,0.1325,0.1665,-0.049,-0.101,0.1495,0.108,0.205,0.248,0.308,0.244,0.2535,-0.0995,0.0915,0.061
-0.03,0.1305,0.1605,-0.05,-0.0955,0.1455,0.1035,0.1955,0.2395,0.3035,0.2415,0.251,-0.0995,0.0855,0.066
-0.0235,0.1295,0.1525,-0.0525,-0.088,0.141,0.1015,0.1895,0.2335,0.2985,0.239,0.25,-0.0975,0.083,0.069
-0.02,0.1235,0.1435,-0.0515,-0.082,0.1335,0.0985,0.1835,0.2285,0.2945,0.236,0.2485,-0.0965,0.0765,0.073
-0.0245,0.118,0.1425,-0.0465,-0.0835,0.13,0.102,0.182,0.224,0.2925,0.2335,0.248,-0.098,0.0735,0.074
-0.0265,0.1185,0.145,-0.046,-0.086,0.132,0.105,0.187,0.2275,0.2945,0.235,0.25,-0.0965,0.0745,0.073
-0.024,0.1235,0.147,-0.0495,-0.0855,0.1355,0.1035,0.1875,0.228,0.2955,0.2365,0.252,-0.093,0.078,0.0725
-0.0155,0.1315,0.147,-0.0575,-0.0815,0.139,0.102,0.186,0.226,0.294,0.2365,0.2515,-0.0915,0.0865,0.072
-0.0095,0.139,0.149,-0.0645,-0.0795,0.144,0.0995,0.188,0.2285,0.2955,0.238,0.253,-0.088,0.0925,0.072
-0.01,0.149,0.1595,-0.069,-0.085,0.154,0.102,0.1905,0.232,0.299,0.2395,0.254,-0.088,0.1045,0.068
-0.0065,0.1595,0.1655,-0.076,-0.0865,0.1625,0.105,0.198,0.239,0.3045,0.245,0.258,-0.086,0.115,0.0625
-0.01,0.1625,0.1725,-0.076,-0.0915,0.1675,0.109,0.2035,0.2445,0.3085,0.247,0.261,-0.0875,0.1205,0.059
-0.0155,0.1635,0.179,-0.074,-0.0975,0.1715,0.1145,0.2065,0.2455,0.3065,0.244,0.258,-0.092,0.1275,0.0575
-0.0145,0.165,0.18,-0.075,-0.098,0.1725,0.12,0.208,0.243,0.304,0.243,0.2575,-0.092,0.1305,0.0555
-0.009,0.1645,0.1735,-0.0775,-0.091,0.169,0.1185,0.206,0.2395,0.302,0.2415,0.2565,-0.091,0.1315,0.0575
-0.0075,0.1635,0.171,-0.0775,-0.0895,0.167,0.1125,0.202,0.237,0.2985,0.24,0.255,-0.09,0.1265,0.0605
-0.0165,0.159,0.1755,-0.071,-0.0965,0.167,0.1105,0.1915,0.228,0.2915,0.2335,0.2515,-0.093,0.12,0.064
-0.0185,0.152,0.1705,-0.0665,-0.0945,0.1615,0.1075,0.1855,0.222,0.2855,0.2315,0.251,-0.093,0.1115,0.0695
-0.0145,0.1465,0.1615,-0.066,-0.0885,0.154,0.1065,0.1865,0.221,0.287,0.2325,0.2535,-0.09,0.105,0.073
-0.0155,0.141,0.1565,-0.0625,-0.0865,0.149,0.1065,0.184,0.2205,0.2865,0.232,0.2565,-0.0875,0.1035,0.076
-0.013,0.1405,0.154,-0.0635,-0.084,0.1475,0.104,0.178,0.2165,0.284,0.233,0.2575,-0.0865,0.103,0.0795
-0.009,0.139,0.148,-0.065,-0.079,0.1435,0.1035,0.1765,0.214,0.283,0.2325,0.2565,-0.084,0.1,0.0815
-0.0015,0.137,0.1385,-0.0675,-0.07,0.1375,0.1015,0.1785,0.2165,0.284,0.2345,0.2595,-0.0785,0.0925,0.083
0.005,0.1375,0.1325,-0.071,-0.064,0.135,0.0975,0.1765,0.2145,0.283,0.234,0.2605,-0.0755,0.0895,0.088
0.003,0.1325,0.129,-0.0675,-0.063,0.131,0.0985,0.179,0.2155,0.2845,0.235,0.26,-0.074,0.0825,0.088
0.0075,0.1285,0.1205,-0.068,-0.0565,0.1245,0.1015,0.1825,0.2185,0.288,0.2375,0.264,-0.0695,0.073,0.0895
0.0135,0.127,0.1135,-0.07,-0.05,0.12,0.099,0.1805,0.216,0.2865,0.236,0.2645,-0.0655,0.071,0.0905
0.017,0.1255,0.108,-0.071,-0.046,0.1165,0.096,0.1795,0.213,0.285,0.234,0.262,-0.0635,0.072,0.0895
0.0165,0.125,0.1085,-0.0705,-0.0465,0.117,0.097,0.1765,0.209,0.2795,0.2295,0.259,-0.0635,0.0725,0.09
0.0125,0.121,0.109,-0.0665,-0.0485,0.115,0.0975,0.173,0.207,0.276,0.225,0.255,-0.064,0.067,0.0905
0.0135,0.118,0.1045,-0.0655,-0.0455,0.1115,0.0975,0.1735,0.207,0.2755,0.225,0.256,-0.0595,0.0615,0.0935
0.0135,0.113,0.1,-0.063,-0.0435,0.1065,0.097,0.1745,0.2055,0.274,0.2245,0.256,-0.058,0.0575,0.095
0.008,0.105,0.097,-0.0565,-0.0445,0.101,0.098,0.172,0.2025,0.2725,0.2205,0.253,-0.0595,0.0535,0.0965
0.008,0.1035,0.096,-0.0555,-0.044,0.1,0.0995,0.169,0.201,0.27,0.221,0.2535,-0.0585,0.053,0.0965
0.014,0.106,0.092,-0.06,-0.0395,0.099,0.0995,0.1675,0.199,0.2685,0.2205,0.252,-0.06,0.056,0.097
0.0155,0.1045,0.089,-0.06,-0.037,0.0965,0.0985,0.1645,0.194,0.264,0.216,0.2485,-0.0635,0.0575,0.098
0.007,0.096,0.089,-0.051,-0.041,0.0925,0.1015,0.1635,0.1915,0.261,0.214,0.2455,-0.067,0.051,0.099
0.0015,0.086,0.0845,-0.0435,-0.042,0.0855,0.1075,0.165,0.19,0.259,0.2125,0.243,-0.07,0.0425,0.0985
-0.01,0.071,0.081,-0.0305,-0.046,0.076,0.1165,0.1685,0.1895,0.256,0.2075,0.238,-0.077,0.028,0.096
-0.024,0.0545,0.078,-0.015,-0.051,0.066,0.129,0.1765,0.1945,0.2595,0.205,0.234,-0.083,0.013,0.09
-0.035,0.04,0.0755,-0.002,-0.0555,0.058,0.1415,0.185,0.199,0.26,0.2015,0.227,-0.0885,0.004,0.084
-0.0575,0.0245,0.082,0.017,-0.07,0.0535,0.1535,0.1855,0.197,0.2535,0.194,0.216,-0.099,-0.005,0.081
-0.064,0.0155,0.0795,0.0245,-0.072,0.0475,0.156,0.183,0.193,0.2485,0.188,0.2105,-0.1015,-0.0125,0.08
-0.065,0.011,0.076,0.027,-0.0705,0.0435,0.1555,0.1825,0.1915,0.248,0.1855,0.2075,-0.104,-0.0145,0.081
-0.077,0.0045,0.0815,0.0365,-0.0795,0.043,0.1605,0.181,0.1915,0.247,0.1835,0.206,-0.109,-0.017,0.0805
-0.084,-0.0025,0.0815,0.0435,-0.083,0.0395,0.166,0.1815,0.1925,0.246,0.1815,0.2045,-0.1095,-0.029,0.079
-0.0795,-0.001,0.0785,0.0405,-0.0795,0.039,0.163,0.18,0.1885,0.244,0.18,0.203,-0.109,-0.0275,0.079
-0.081,-0.0015,0.08,0.0415,-0.0805,0.039,0.1585,0.174,0.182,0.2395,0.1765,0.1995,-0.11,-0.026,0.081
-0.0825,-0.0035,0.0785,0.0435,-0.0805,0.037,0.1585,0.1685,0.1755,0.233,0.169,0.193,-0.1125,-0.034,0.0825
-0.081,-0.005,0.076,0.0435,-0.079,0.0355,0.1545,0.1635,0.169,0.2255,0.1635,0.1875,-0.1145,-0.0355,0.0845
-0.087,-0.01,0.077,0.0485,-0.082,0.0335,0.1565,0.1635,0.168,0.2245,0.161,0.185,-0.116,-0.038,0.0845
-0.0845,-0.0115,0.0725,0.048,-0.079,0.0305,0.1575,0.1645,0.166,0.224,0.1595,0.184,-0.1165,-0.039,0.0835
-0.087,-0.0145,0.0725,0.051,-0.08,0.029,0.1575,0.1615,0.1635,0.219,0.156,0.1805,-0.1195,-0.043,0.0845
-0.089,-0.016,0.073,0.0525,-0.081,0.0285,0.16,0.161,0.161,0.2155,0.154,0.1765,-0.1215,-0.0425,0.085
-0.0885,-0.021,0.068,0.055,-0.0785,0.0235,0.159,0.1625,0.1605,0.2155,0.151,0.173,-0.122,-0.0455,0.0855
-0.091,-0.0275,0.063,0.0595,-0.077,0.018,0.1605,0.16,0.1595,0.2125,0.1475,0.1695,-0.1245,-0.05,0.0865
-0.0905,-0.0305,0.0595,0.0605,-0.0755,0.0145,0.162,0.159,0.158,0.21,0.148,0.1685,-0.1255,-0.052,0.0885
-0.089,-0.0365,0.0525,0.063,-0.071,0.008,0.1645,0.1615,0.1585,0.211,0.148,0.169,-0.1235,-0.061,0.0905
-0.093,-0.0435,0.0495,0.0685,-0.0715,0.003,0.168,0.162,0.1575,0.211,0.1485,0.1695,-0.1255,-0.068,0.0905
-0.0985,-0.0505,0.048,0.075,-0.0735,-0.0015,0.17,0.1645,0.1595,0.213,0.15,0.1715,-0.1265,-0.072,0.091
-0.1015,-0.0555,0.0465,0.0785,-0.074,-0.0045,0.1705,0.1645,0.1595,0.213,0.149,0.171,-0.1245,-0.076,0.0925
-0.0955,-0.0525,0.0435,0.074,-0.0695,-0.0045,0.1695,0.162,0.158,0.2125,0.149,0.171,-0.124,-0.072,0.092
-0.093,-0.0545,0.0385,0.074,-0.066,-0.008,0.169,0.161,0.157,0.2115,0.148,0.169,-0.1245,-0.0715,0.0915
-0.1035,-0.0655,0.0375,0.0845,-0.0705,-0.014,0.17,0.162,0.155,0.2095,0.1465,0.1655,-0.1285,-0.0805,0.0925
-0.108,-0.07,0.0375,0.0895,-0.073,-0.0165,0.1745,0.1655,0.1565,0.2115,0.1475,0.1675,-0.1295,-0.086,0.09
-0.1115,-0.0735,0.038,0.0925,-0.075,-0.018,0.176,0.1675,0.1585,0.211,0.149,0.1685,-0.1295,-0.0915,0.089
-0.1075,-0.0725,0.035,0.09,-0.071,-0.019,0.1735,0.166,0.157,0.2105,0.147,0.167,-0.129,-0.0905,0.0895
-0.105,-0.069,0.036,0.0875,-0.0705,-0.0165,0.1735,0.165,0.1535,0.2075,0.1445,0.1645,-0.129,-0.084,0.0895
-0.102,-0.067,0.0355,0.085,-0.069,-0.016,0.171,0.1625,0.1495,0.2045,0.143,0.163,-0.129,-0.0795,0.09
-0.0935,-0.059,0.0345,0.0765,-0.0645,-0.012,0.168,0.16,0.148,0.204,0.14,0.1625,-0.126,-0.0765,0.09
-0.0885,-0.056,0.0325,0.0725,-0.061,-0.0115,0.1675,0.1585,0.1475,0.202,0.1405,0.1615,-0.125,-0.077,0.0895
-0.0955,-0.06,0.0355,0.078,-0.066,-0.012,0.1675,0.158,0.146,0.2,0.1385,0.16,-0.127,-0.079,0.0895
-0.101,-0.062,0.039,0.0815,-0.0705,-0.0115,0.169,0.1565,0.145,0.1985,0.135,0.157,-0.128,-0.079,0.091
-0.0965,-0.0595,0.0375,0.078,-0.067,-0.011,0.169,0.1565,0.1465,0.198,0.135,0.1565,-0.1275,-0.079,0.09
-0.098,-0.0565,0.0415,0.0775,-0.07,-0.0075,0.1675,0.156,0.1455,0.1965,0.134,0.1535,-0.1285,-0.077,0.0895
-0.095,-0.0595,0.0355,0.0775,-0.0655,-0.012,0.167,0.1575,0.1455,0.1965,0.134,0.154,-0.127,-0.0805,0.0915
-0.097,-0.0655,0.0315,0.0815,-0.0645,-0.017,0.167,0.1595,0.146,0.1975,0.1325,0.154,-0.128,-0.0855,0.0915
-0.1015,-0.0685,0.033,0.0855,-0.0675,-0.0175,0.1685,0.159,0.146,0.197,0.1325,0.1545,-0.129,-0.088,0.092
-0.11,-0.076,0.034,0.093,-0.0725,-0.021,0.1725,0.1595,0.1485,0.1985,0.134,0.156,-0.132,-0.092,0.093
-0.1205,-0.0835,0.0375,0.1025,-0.0795,-0.023,0.1775,0.1635,0.1505,0.1995,0.1355,0.1555,-0.1345,-0.095,0.092
-0.122,-0.085,0.037,0.1035,-0.08,-0.024,0.1795,0.165,0.1515,0.1995,0.1345,0.1555,-0.1345,-0.098,0.0905
-0.1185,-0.083,0.036,0.101,-0.0775,-0.0235,0.18,0.165,0.1505,0.1995,0.1335,0.1525,-0.1355,-0.097,0.0895
-0.117,-0.0845,0.033,0.101,-0.0755,-0.0255,0.18,0.165,0.15,0.1975,0.1325,0.1525,-0.1345,-0.0975,0.089
-0.119,-0.0875,0.0315,0.1035,-0.0755,-0.0275,0.178,0.162,0.1485,0.198,0.1315,0.151,-0.136,-0.101,0.089
-0.122,-0.0885,0.0335,0.1055,-0.078,-0.0275,0.179,0.165,0.15,0.198,0.1335,0.1525,-0.136,-0.1035,0.0905
-0.1255,-0.09,0.036,0.108,-0.081,-0.027,0.183,0.1675,0.152,0.1985,0.133,0.153,-0.136,-0.106,0.0895
-0.1235,-0.0875,0.0365,0.1055,-0.08,-0.0255,0.1845,0.1675,0.1505,0.1985,0.1335,0.1505,-0.138,-0.1035,0.0865
-0.121,-0.0825,0.038,0.102,-0.08,-0.022,0.183,0.166,0.148,0.1955,0.132,0.15,-0.138,-0.1015,0.0865
-0.119,-0.0775,0.0415,0.0985,-0.0805,-0.018,0.18,0.161,0.145,0.1945,0.128,0.1475,-0.1375,-0.097,0.0845
-0.1165,-0.073,0.0435,0.095,-0.08,-0.015,0.1775,0.16,0.1445,0.1935,0.1265,0.147,-0.1365,-0.0905,0.0845
-0.1135,-0.0695,0.0435,0.092,-0.079,-0.013,0.1775,0.163,0.145,0.1935,0.1265,0.146,-0.1355,-0.0835,0.085
-0.114,-0.074,0.04,0.0945,-0.0775,-0.017,0.1785,0.1645,0.145,0.1925,0.1265,0.147,-0.136,-0.086,0.0845
-0.1175,-0.0755,0.042,0.097,-0.08,-0.0165,0.1795,0.161,0.1445,0.1915,0.127,0.147,-0.138,-0.091,0.0865
-0.1185,-0.0735,0.045,0.0965,-0.082,-0.0145,0.1795,0.1615,0.1455,0.1935,0.129,0.1475,-0.137,-0.089,0.0845
-0.1175,-0.0705,0.047,0.0945,-0.0825,-0.012,0.1785,0.1595,0.143,0.191,0.1265,0.1465,-0.138,-0.087,0.083
-0.119,-0.0695,0.0495,0.0945,-0.0845,-0.01,0.1745,0.155,0.1385,0.1865,0.122,0.14,-0.1415,-0.09,0.0845
-0.121,-0.0755,0.0455,0.0985,-0.0835,-0.0155,0.1745,0.1555,0.139,0.1885,0.122,0.142,-0.142,-0.0935,0.085
-0.122,-0.0755,0.046,0.099,-0.084,-0.015,0.1775,0.1575,0.142,0.192,0.1245,0.144,-0.143,-0.0935,0.0835
-0.126,-0.082,0.0445,0.104,-0.0855,-0.0185,0.179,0.1595,0.1425,0.1925,0.125,0.1435,-0.1445,-0.0965,0.085
-0.1255,-0.088,0.0375,0.107,-0.082,-0.025,0.179,0.159,0.1435,0.1925,0.1275,0.1455,-0.144,-0.1,0.0865
-0.1255,-0.0885,0.037,0.107,-0.0815,-0.0255,0.1795,0.161,0.144,0.1935,0.1275,0.147,-0.143,-0.1055,0.0865
-0.1235,-0.087,0.0365,0.1055,-0.0805,-0.025,0.179,0.162,0.1435,0.1935,0.128,0.146,-0.1445,-0.1055,0.0865
-0.1235,-0.0905,0.033,0.1075,-0.0785,-0.0285,0.18,0.1595,0.1425,0.1915,0.1275,0.144,-0.1455,-0.108,0.0865
-0.124,-0.096,0.028,0.11,-0.076,-0.034,0.1815,0.158,0.142,0.1905,0.125,0.1445,-0.1455,-0.1085,0.0885
-0.1285,-0.098,0.0305,0.1135,-0.0795,-0.034,0.1845,0.1615,0.1435,0.1905,0.126,0.1435,-0.149,-0.1105,0.0865
-0.1335,-0.098,0.0355,0.116,-0.085,-0.031,0.186,0.1655,0.144,0.192,0.1275,0.1455,-0.148,-0.1155,0.0855
-0.133,-0.094,0.039,0.114,-0.0865,-0.0275,0.1875,0.1645,0.143,0.1925,0.128,0.1465,-0.146,-0.1075,0.0845
-0.1305,-0.0915,0.039,0.111,-0.085,-0.0265,0.1875,0.164,0.1415,0.19,0.127,0.1445,-0.1465,-0.1035,0.0845
-0.124,-0.085,0.039,0.1045,-0.082,-0.0225,0.182,0.162,0.1405,0.189,0.1245,0.1435,-0.1435,-0.1015,0.0855
-0.1215,-0.0785,0.0425,0.1005,-0.0825,-0.018,0.18,0.161,0.14,0.1895,0.124,0.142,-0.142,-0.1005,0.085
-0.116,-0.073,0.043,0.0945,-0.0795,-0.015,0.1785,0.1625,0.1395,0.189,0.1245,0.141,-0.139,-0.098,0.085
-0.1185,-0.0725,0.046,0.096,-0.0825,-0.0135,0.1805,0.163,0.138,0.1905,0.1245,0.142,-0.1395,-0.094,0.0865
-0.1205,-0.07,0.0505,0.0955,-0.086,-0.0095,0.182,0.1615,0.137,0.191,0.123,0.1415,-0.1425,-0.0935,0.084
-0.119,-0.067,0.0525,0.0935,-0.086,-0.0075,0.183,0.163,0.1395,0.1915,0.1245,0.1425,-0.141,-0.091,0.0835
-0.1145,-0.0675,0.047,0.0915,-0.081,-0.01,0.1825,0.1605,0.137,0.1895,0.123,0.142,-0.1385,-0.0905,0.085
-0.112,-0.0665,0.045,0.0895,-0.0785,-0.0105,0.179,0.157,0.135,0.1895,0.122,0.141,-0.138,-0.0925,0.0865
-0.118,-0.074,0.0445,0.0965,-0.0815,-0.015,0.1805,0.1595,0.1355,0.191,0.124,0.143,-0.1395,-0.099,0.089
-0.1195,-0.076,0.0435,0.098,-0.082,-0.0165,0.181,0.1595,0.1355,0.1895,0.1245,0.1435,-0.1395,-0.098,0.0895
-0.122,-0.0785,0.0435,0.1005,-0.083,-0.0175,0.1855,0.1605,0.139,0.193,0.1265,0.1455,-0.1405,-0.099,0.0895
-0.125,-0.082,0.043,0.1035,-0.084,-0.0195,0.187,0.1605,0.139,0.193,0.1265,0.147,-0.1415,-0.1045,0.0885
-0.1255,-0.085,0.041,0.1055,-0.0835,-0.022,0.185,0.1595,0.1375,0.1915,0.126,0.145,-0.143,-0.105,0.0875
-0.1225,-0.083,0.0395,0.103,-0.0815,-0.0215,0.184,0.158,0.138,0.192,0.124,0.145,-0.1455,-0.1025,0.089
-0.1215,-0.08,0.0415,0.101,-0.082,-0.0195,0.1785,0.1545,0.1345,0.189,0.123,0.1445,-0.1445,-0.1,0.089
-0.1235,-0.084,0.0395,0.104,-0.0815,-0.0225,0.1775,0.1555,0.135,0.1875,0.1235,0.143,-0.144,-0.1055,0.0895
-0.122,-0.0825,0.0395,0.1025,-0.081,-0.0215,0.1825,0.1635,0.143,0.192,0.126,0.146,-0.1415,-0.106,0.089
-0.128,-0.09,0.0375,0.109,-0.083,-0.0265,0.1905,0.1735,0.15,0.199,0.129,0.147,-0.1425,-0.111,0.085
-0.133,-0.081,0.0515,0.1075,-0.0925,-0.015,0.1925,0.1745,0.149,0.196,0.123,0.139,-0.146,-0.105,0.082
-0.1315,-0.077,0.054,0.1045,-0.093,-0.0115,0.1955,0.179,0.1535,0.1985,0.1215,0.135,-0.147,-0.1,0.0755
-0.1345,-0.103,0.0315,0.119,-0.0835,-0.0355,0.21,0.197,0.1665,0.2095,0.127,0.14,-0.1495,-0.1135,0.0695
-0.136,-0.1055,0.03,0.121,-0.083,-0.038,0.22,0.2135,0.181,0.2175,0.128,0.138,-0.1515,-0.112,0.063
-0.135,-0.096,0.039,0.1155,-0.087,-0.0285,0.2305,0.234,0.1995,0.226,0.1305,0.1325,-0.154,-0.103,0.049
-0.14,-0.099,0.041,0.1195,-0.0905,-0.029,0.247,0.2595,0.219,0.238,0.1315,0.1285,-0.156,-0.105,0.0365
-0.1475,-0.108,0.0395,0.128,-0.0935,-0.0345,0.265,0.2875,0.2405,0.2505,0.131,0.1235,-0.1595,-0.1115,0.026
-0.1525,-0.1165,0.036,0.135,-0.0945,-0.0405,0.289,0.3225,0.265,0.2635,0.131,0.117,-0.164,-0.1205,0.009
-0.1525,-0.1225,0.0305,0.1375,-0.092,-0.046,0.308,0.3535,0.286,0.276,0.13,0.1095,-0.167,-0.1255,-0.009
-0.1525,-0.1215,0.031,0.137,-0.0915,-0.0455,0.3185,0.3715,0.3015,0.2845,0.132,0.106,-0.168,-0.122,-0.0195
-0.153,-0.118,0.035,0.136,-0.094,-0.0415,0.33,0.3895,0.3185,0.2965,0.1385,0.1075,-0.1665,-0.1195,-0.028
-0.1565,-0.1215,0.0355,0.139,-0.096,-0.043,0.3385,0.406,0.3305,0.3055,0.14,0.1075,-0.166,-0.1215,-0.0365
-0.162,-0.136,0.026,0.1495,-0.0945,-0.055,0.355,0.4335,0.3465,0.3135,0.1375,0.1025,-0.1685,-0.134,-0.0455
-0.1635,-0.1405,0.023,0.1525,-0.0935,-0.0585,0.3695,0.4575,0.3605,0.3185,0.137,0.1,-0.17,-0.137,-0.054
-0.16,-0.127,0.033,0.144,-0.0965,-0.047,0.3675,0.46,0.3635,0.3215,0.1405,0.1045,-0.1665,-0.1285,-0.0595
-0.1545,-0.116,0.0385,0.1355,-0.097,-0.0385,0.373,0.472,0.3715,0.3275,0.143,0.107,-0.162,-0.1255,-0.067
-0.147,-0.111,0.036,0.1295,-0.092,-0.0375,0.3855,0.504,0.3995,0.349,0.1535,0.111,-0.1525,-0.1225,-0.0825
-0.1315,-0.1045,0.027,0.1185,-0.0795,-0.039,0.385,0.528,0.4235,0.373,0.1745,0.1265,-0.136,-0.1195,-0.091
-0.1215,-0.091,0.0305,0.1065,-0.0765,-0.03,0.381,0.536,0.436,0.3885,0.1915,0.1425,-0.119,-0.108,-0.095
-0.1075,-0.073,0.034,0.0905,-0.071,-0.0195,0.3755,0.5435,0.4485,0.406,0.2115,0.1605,-0.1005,-0.1015,-0.098
-0.0855,-0.0445,0.041,0.065,-0.0635,-0.0015,0.3615,0.542,0.454,0.4185,0.2335,0.1855,-0.0775,-0.086,-0.0965
-0.0565,-0.0105,0.0465,0.034,-0.052,0.018,0.344,0.5505,0.4765,0.45,0.2705,0.219,-0.041,-0.0595,-0.102
-0.0155,0.0145,0.03,0.001,-0.023,0.022,0.3175,0.5575,0.4985,0.4845,0.3125,0.2555,0.0025,-0.0485,-0.1025
0.015,0.049,0.0345,-0.032,-0.01,0.0415,0.2895,0.5505,0.51,0.508,0.344,0.2895,0.038,-0.026,-0.0995
0.0585,0.1045,0.046,-0.0815,0.006,0.0755,0.2465,0.5385,0.5235,0.542,0.395,0.3435,0.0885,0.0115,-0.0955
0.1195,0.165,0.046,-0.142,0.0365,0.1055,0.1865,0.5105,0.5315,0.58,0.46,0.4125,0.155,0.0515,-0.0815
0.1845,0.237,0.0525,-0.2105,0.066,0.145,0.1125,0.466,0.5335,0.6195,0.535,0.4925,0.231,0.1005,-0.0605
0.25,0.298,0.0475,-0.274,0.101,0.173,0.046,0.4385,0.551,0.67,0.611,0.5715,0.308,0.1385,-0.0465
0.3035,0.3455,0.041,-0.3245,0.131,0.193,-0.009,0.4075,0.563,0.712,0.6755,0.6365,0.3705,0.1735,-0.0345
0.348,0.417,0.069,-0.3825,0.1395,0.243,-0.0705,0.3435,0.548,0.7355,0.7335,0.7,0.4185,0.236,-0.022
0.378,0.4925,0.1145,-0.4355,0.132,0.3035,-0.1235,0.2645,0.52,0.745,0.7835,0.762,0.4565,0.2985,-0.008
0.4195,0.5715,0.1515,-0.4955,0.134,0.3615,-0.195,0.1705,0.488,0.7635,0.8505,0.842,0.5125,0.363,0.011
0.47,0.659,0.1885,-0.5645,0.1405,0.424,-0.2735,0.064,0.4445,0.777,0.9225,0.9305,0.5765,0.435,0.0335
0.5045,0.726,0.221,-0.6155,0.142,0.4735,-0.338,-0.0495,0.387,0.7755,0.9815,1.004,0.6245,0.49,0.0585
0.5425,0.773,0.23,-0.658,0.156,0.5015,-0.388,-0.1255,0.372,0.812,1.059,1.0825,0.685,0.528,0.069
0.5825,0.8175,0.235,-0.7,0.1735,0.526,-0.435,-0.2165,0.3335,0.823,1.1205,1.1535,0.7405,0.564,0.0825
0.6195,0.862,0.242,-0.741,0.1885,0.552,-0.4785,-0.2985,0.3085,0.8405,1.1815,1.221,0.7915,0.6015,0.09
0.6605,0.8715,0.2105,-0.766,0.225,0.541,-0.496,-0.3255,0.328,0.8915,1.2535,1.284,0.852,0.6015,0.084
0.691,0.841,0.15,-0.766,0.2705,0.4955,-0.5185,-0.3825,0.3035,0.908,1.3015,1.3295,0.898,0.5655,0.0995
0.7075,0.7995,0.0915,-0.7535,0.308,0.4455,-0.535,-0.4375,0.2715,0.9165,1.3375,1.364,0.9355,0.5215,0.122
0.691,0.742,0.051,-0.7165,0.32,0.3965,-0.518,-0.476,0.2265,0.896,1.332,1.358,0.932,0.475,0.138
0.6205,0.6825,0.0615,-0.6515,0.2795,0.372,-0.4785,-0.514,0.1705,0.846,1.2855,1.313,0.8765,0.4455,0.15
0.5075,0.634,0.1255,-0.571,0.191,0.3795,-0.4175,-0.5595,0.0915,0.7555,1.1945,1.2345,0.778,0.435,0.1635
0.3995,0.5735,0.174,-0.4865,0.113,0.3735,-0.366,-0.6125,-0.0005,0.644,1.075,1.13,0.6605,0.4095,0.183
0.3225,0.496,0.1725,-0.409,0.075,0.334,-0.3235,-0.6385,-0.07,0.556,0.9715,1.033,0.5615,0.359,0.197
0.2635,0.386,0.122,-0.3245,0.0705,0.254,-0.2655,-0.618,-0.1115,0.4825,0.869,0.931,0.4735,0.273,0.207
0.2015,0.308,0.1065,-0.2545,0.0475,0.207,-0.214,-0.5935,-0.142,0.414,0.767,0.831,0.3845,0.216,0.2125
0.154,0.282,0.128,-0.218,0.013,0.205,-0.181,-0.592,-0.1885,0.343,0.6775,0.754,0.3105,0.2095,0.218
0.1055,0.2475,0.142,-0.1765,-0.018,0.1945,-0.1535,-0.6085,-0.257,0.2405,0.5625,0.656,0.2155,0.194,0.2335
0.0415,0.2245,0.183,-0.1325,-0.071,0.2035,-0.1275,-0.656,-0.351,0.112,0.425,0.543,0.099,0.1885,0.2495
-0.03,0.2005,0.2305,-0.085,-0.1305,0.2155,-0.1005,-0.714,-0.4585,-0.024,0.2835,0.43,-0.019,0.183,0.2695
-0.1115,0.175,0.286,-0.0315,-0.199,0.2305,-0.055,-0.762,-0.5585,-0.1585,0.146,0.3225,-0.1405,0.183,0.2835
-0.161,0.1405,0.302,0.0105,-0.232,0.221,-0.0055,-0.7585,-0.607,-0.241,0.052,0.2475,-0.216,0.166,0.2915
-0.201,0.09,0.291,0.056,-0.2465,0.1905,0.0295,-0.745,-0.6405,-0.305,-0.0255,0.1775,-0.2755,0.126,0.3065
-0.24,0.0475,0.288,0.0965,-0.264,0.168,0.0505,-0.746,-0.6745,-0.364,-0.097,0.11,-0.3345,0.096,0.321
-0.2675,-0.003,0.2645,0.1355,-0.266,0.131,0.079,-0.709,-0.67,-0.387,-0.1485,0.0475,-0.381,0.056,0.323
-0.291,-0.051,0.2395,0.171,-0.2655,0.094,0.105,-0.6665,-0.665,-0.404,-0.1845,0.0045,-0.4105,0.017,0.329
-0.3005,-0.0945,0.206,0.198,-0.2535,0.0555,0.122,-0.628,-0.6575,-0.4125,-0.204,-0.016,-0.418,-0.022,0.34
-0.3045,-0.152,0.1525,0.2285,-0.2285,0,0.1695,-0.546,-0.608,-0.392,-0.209,-0.034,-0.415,-0.078,0.332
-0.3135,-0.2145,0.099,0.264,-0.2065,-0.058,0.2255,-0.442,-0.548,-0.368,-0.214,-0.051,-0.4095,-0.138,0.3205
-0.306,-0.273,0.033,0.2895,-0.17,-0.12,0.2685,-0.342,-0.485,-0.3345,-0.2115,-0.064,-0.3965,-0.192,0.3075
-0.2905,-0.306,-0.0155,0.2985,-0.138,-0.1605,0.283,-0.269,-0.428,-0.296,-0.1975,-0.066,-0.376,-0.2295,0.2995
-0.281,-0.328,-0.047,0.3045,-0.117,-0.1875,0.292,-0.219,-0.3885,-0.269,-0.191,-0.069,-0.363,-0.256,0.292
-0.267,-0.3455,-0.0785,0.3065,-0.0945,-0.212,0.296,-0.1745,-0.3485,-0.241,-0.1805,-0.0725,-0.3515,-0.2735,0.2795
-0.266,-0.3535,-0.0875,0.31,-0.0895,-0.2205,0.29,-0.135,-0.311,-0.212,-0.1685,-0.072,-0.344,-0.284,0.267
-0.2575,-0.365,-0.1075,0.3115,-0.075,-0.2365,0.2965,-0.083,-0.2635,-0.174,-0.1505,-0.066,-0.3275,-0.303,0.251
-0.244,-0.3585,-0.1145,0.3015,-0.065,-0.2365,0.291,-0.036,-0.2095,-0.129,-0.1245,-0.053,-0.31,-0.3065,0.2325
-0.233,-0.3335,-0.1005,0.2835,-0.0665,-0.217,0.2895,0.0055,-0.1575,-0.0835,-0.0955,-0.035,-0.2925,-0.2895,0.206
-0.2225,-0.315,-0.093,0.269,-0.065,-0.204,0.2975,0.0435,-0.1155,-0.048,-0.07,-0.0195,-0.2755,-0.274,0.1825
-0.2125,-0.2965,-0.084,0.2545,-0.0645,-0.19,0.301,0.0675,-0.083,-0.019,-0.052,-0.0075,-0.263,-0.2575,0.1645
-0.2035,-0.278,-0.075,0.241,-0.0645,-0.1765,0.3075,0.096,-0.0475,0.01,-0.0295,0.009,-0.248,-0.2465,0.1485
-0.195,-0.267,-0.0725,0.231,-0.0615,-0.1695,0.3105,0.124,-0.0105,0.0415,-0.0055,0.026,-0.2295,-0.2425,0.136
-0.1775,-0.258,-0.0805,0.218,-0.049,-0.169,0.3085,0.1515,0.025,0.073,0.018,0.0455,-0.205,-0.2415,0.13
-0.162,-0.2465,-0.084,0.2045,-0.0395,-0.1655,0.299,0.177,0.059,0.1035,0.044,0.0665,-0.1825,-0.2375,0.1245
-0.1445,-0.226,-0.082,0.1855,-0.0315,-0.154,0.287,0.192,0.088,0.131,0.0655,0.084,-0.165,-0.2265,0.1155
-0.133,-0.208,-0.075,0.171,-0.029,-0.1415,0.2765,0.199,0.106,0.15,0.081,0.097,-0.152,-0.215,0.109
-0.1215,-0.1915,-0.07,0.1565,-0.0265,-0.1305,0.2665,0.2115,0.127,0.167,0.0965,0.109,-0.139,-0.199,0.1025
-0.108,-0.1745,-0.0665,0.1415,-0.021,-0.1205,0.259,0.2335,0.1525,0.189,0.1125,0.123,-0.125,-0.187,0.095
-0.106,-0.1645,-0.0585,0.1355,-0.024,-0.1115,0.2515,0.2495,0.1725,0.2065,0.1255,0.133,-0.1185,-0.1795,0.0875
-0.1045,-0.157,-0.0525,0.131,-0.0265,-0.105,0.2485,0.262,0.1865,0.2175,0.1325,0.139,-0.115,-0.174,0.084
-0.0985,-0.1405,-0.042,0.12,-0.0285,-0.091,0.239,0.267,0.1965,0.227,0.141,0.147,-0.111,-0.1615,0.079
-0.089,-0.119,-0.03,0.104,-0.0295,-0.0745,0.228,0.2665,0.2035,0.233,0.1465,0.1515,-0.1095,-0.141,0.075
-0.0855,-0.1045,-0.019,0.095,-0.0335,-0.0615,0.2235,0.2675,0.209,0.237,0.149,0.154,-0.1095,-0.126,0.072
-0.08,-0.0875,-0.008,0.084,-0.0365,-0.0475,0.213,0.2625,0.2125,0.24,0.1535,0.157,-0.108,-0.109,0.0685
-0.0745,-0.074,0.001,0.0745,-0.038,-0.0365,0.208,0.261,0.217,0.2445,0.1575,0.161,-0.106,-0.0935,0.0675
-0.081,-0.0685,0.0125,0.075,-0.047,-0.028,0.2075,0.261,0.2195,0.2495,0.1605,0.1635,-0.107,-0.086,0.0645
-0.086,-0.0645,0.021,0.0755,-0.054,-0.0215,0.206,0.2565,0.22,0.252,0.163,0.1645,-0.1095,-0.083,0.0635
-0.0785,-0.053,0.0255,0.066,-0.0525,-0.0135,0.205,0.256,0.2245,0.256,0.1675,0.168,-0.1075,-0.076,0.061
-0.073,-0.045,0.0285,0.0595,-0.051,-0.008,0.2035,0.2565,0.227,0.257,0.169,0.169,-0.1065,-0.0725,0.061
-0.074,-0.0495,0.025,0.062,-0.05,-0.0125,0.2015,0.2575,0.226,0.2575,0.166,0.1675,-0.106,-0.074,0.062
-0.0745,-0.052,0.0225,0.0635,-0.049,-0.015,0.2035,0.261,0.231,0.2585,0.1675,0.167,-0.1065,-0.0715,0.0615
-0.0795,-0.056,0.0235,0.068,-0.052,-0.0165,0.207,0.2635,0.235,0.2605,0.1705,0.169,-0.1075,-0.077,0.061
-0.0865,-0.064,0.0225,0.075,-0.0545,-0.0205,0.2075,0.2635,0.236,0.262,0.1695,0.168,-0.11,-0.088,0.0605
-0.0865,-0.0655,0.021,0.076,-0.054,-0.022,0.209,0.2675,0.2395,0.263,0.172,0.169,-0.11,-0.0905,0.06
-0.083,-0.064,0.019,0.074,-0.051,-0.0225,0.2105,0.27,0.242,0.266,0.174,0.1715,-0.1085,-0.0905,0.0595
-0.0825,-0.063,0.019,0.073,-0.051,-0.022,0.2095,0.271,0.243,0.2665,0.1735,0.1695,-0.1065,-0.0895,0.062
-0.0785,-0.0605,0.018,0.07,-0.0485,-0.0215,0.208,0.2695,0.2435,0.2665,0.175,0.1705,-0.1045,-0.0875,0.059
-0.0795,-0.0605,0.019,0.07,-0.0495,-0.0205,0.205,0.2685,0.243,0.269,0.175,0.1715,-0.105,-0.0865,0.058
-0.0785,-0.058,0.0205,0.0685,-0.0495,-0.0185,0.204,0.2715,0.244,0.2705,0.1785,0.172,-0.1045,-0.0815,0.059
-0.078,-0.057,0.021,0.068,-0.05,-0.018,0.2075,0.273,0.2475,0.273,0.1825,0.175,-0.103,-0.083,0.057
-0.079,-0.0605,0.0185,0.07,-0.0495,-0.021,0.208,0.275,0.25,0.2765,0.1835,0.1775,-0.101,-0.089,0.0555
-0.0745,-0.0595,0.0155,0.067,-0.045,-0.022,0.204,0.277,0.2515,0.2765,0.1855,0.179,-0.098,-0.086,0.056
-0.0695,-0.052,0.0175,0.061,-0.0435,-0.0175,0.201,0.275,0.252,0.2765,0.185,0.179,-0.0975,-0.081,0.055
-0.064,-0.046,0.018,0.055,-0.041,-0.014,0.1975,0.275,0.2505,0.277,0.184,0.1785,-0.0965,-0.078,0.0535
-0.064,-0.043,0.021,0.054,-0.0425,-0.011,0.1965,0.276,0.2525,0.278,0.1845,0.1785,-0.0965,-0.0765,0.0535
-0.0645,-0.0415,0.0225,0.0535,-0.044,-0.0095,0.1965,0.276,0.254,0.2785,0.184,0.18,-0.0955,-0.076,0.0535
-0.0645,-0.042,0.0225,0.0535,-0.044,-0.0095,0.194,0.276,0.2535,0.28,0.185,0.18,-0.0955,-0.0745,0.054
-0.062,-0.0365,0.0255,0.0495,-0.044,-0.0055,0.194,0.2755,0.257,0.2805,0.188,0.1825,-0.094,-0.071,0.053
-0.0565,-0.0315,0.025,0.0445,-0.041,-0.0035,0.191,0.2755,0.258,0.281,0.1885,0.186,-0.0895,-0.066,0.0535
-0.054,-0.032,0.0225,0.043,-0.0385,-0.005,0.1865,0.2735,0.255,0.2805,0.1875,0.184,-0.09,-0.0645,0.054
-0.055,-0.0325,0.023,0.044,-0.039,-0.0045,0.1865,0.272,0.255,0.2795,0.188,0.184,-0.09,-0.066,0.055
-0.0595,-0.0345,0.0255,0.0475,-0.043,-0.0045,0.189,0.2755,0.2585,0.2845,0.1915,0.1875,-0.089,-0.0675,0.056
-0.0645,-0.0415,0.0225,0.053,-0.0435,-0.0095,0.191,0.2775,0.2605,0.288,0.1945,0.1885,-0.0905,-0.074,0.056
-0.067,-0.047,0.02,0.057,-0.0435,-0.0135,0.189,0.277,0.2605,0.2875,0.194,0.19,-0.09,-0.0785,0.0575
-0.0675,-0.0465,0.0205,0.057,-0.0445,-0.013,0.1885,0.278,0.261,0.2895,0.195,0.1905,-0.0895,-0.0795,0.058
-0.063,-0.045,0.018,0.0545,-0.0405,-0.0135,0.187,0.278,0.2635,0.2905,0.1975,0.1925,-0.0885,-0.083,0.0575
-0.0545,-0.0435,0.011,0.0495,-0.033,-0.016,0.1845,0.278,0.265,0.291,0.1985,0.1945,-0.085,-0.0815,0.057
-0.055,-0.045,0.01,0.05,-0.033,-0.0175,0.183,0.278,0.2645,0.292,0.198,0.1955,-0.0845,-0.079,0.0575
-0.057,-0.046,0.011,0.052,-0.0345,-0.0175,0.1845,0.281,0.2675,0.2945,0.2005,0.1975,-0.085,-0.083,0.0595
-0.059,-0.0465,0.0125,0.053,-0.0365,-0.017,0.188,0.2855,0.272,0.298,0.204,0.1995,-0.085,-0.0885,0.057
-0.061,-0.0455,0.0155,0.0535,-0.0385,-0.015,0.187,0.2865,0.273,0.301,0.2055,0.201,-0.084,-0.085,0.0545
-0.0535,-0.0395,0.014,0.047,-0.034,-0.013,0.185,0.284,0.2715,0.2985,0.206,0.2015,-0.0805,-0.0805,0.057
-0.051,-0.0355,0.015,0.0435,-0.033,-0.01,0.183,0.2815,0.271,0.296,0.2045,0.2,-0.08,-0.0775,0.055
-0.0485,-0.03,0.0185,0.0395,-0.034,-0.006,0.1805,0.2805,0.2705,0.297,0.203,0.198,-0.079,-0.071,0.0545
-0.044,-0.0245,0.0195,0.0345,-0.032,-0.0025,0.18,0.281,0.2705,0.2965,0.202,0.199,-0.0785,-0.067,0.054
-0.045,-0.025,0.02,0.035,-0.0325,-0.002,0.1785,0.284,0.272,0.298,0.2025,0.2015,-0.077,-0.0655,0.0535
-0.0465,-0.025,0.022,0.036,-0.0345,-0.0015,0.179,0.2845,0.272,0.3005,0.2035,0.202,-0.075,-0.0655,0.055
-0.0445,-0.0205,0.024,0.0325,-0.0345,0.0015,0.1795,0.287,0.2745,0.3005,0.2045,0.2005,-0.0755,-0.064,0.0525
-0.0385,-0.016,0.0225,0.0275,-0.031,0.003,0.176,0.2855,0.2725,0.2985,0.203,0.199,-0.0745,-0.059,0.0545
-0.033,-0.0135,0.0195,0.024,-0.0265,0.003,0.173,0.2825,0.27,0.297,0.202,0.199,-0.0745,-0.0575,0.0545
-0.029,-0.0105,0.018,0.02,-0.0235,0.004,0.1705,0.283,0.2705,0.298,0.2025,0.198,-0.075,-0.056,0.0535
-0.035,-0.013,0.0215,0.0245,-0.0285,0.0045,0.1745,0.287,0.2735,0.3005,0.204,0.201,-0.074,-0.058,0.055
-0.0435,-0.0205,0.023,0.032,-0.033,0.001,0.1775,0.2925,0.278,0.3045,0.207,0.2035,-0.074,-0.0635,0.0565
-0.0425,-0.024,0.018,0.0335,-0.0305,-0.003,0.1755,0.292,0.2785,0.305,0.209,0.204,-0.074,-0.0655,0.0565
-0.048,-0.0305,0.0175,0.0395,-0.033,-0.0065,0.176,0.2905,0.278,0.305,0.207,0.204,-0.074,-0.0725,0.056
-0.0495,-0.032,0.018,0.041,-0.034,-0.007,0.175,0.2905,0.2775,0.305,0.2055,0.2025,-0.073,-0.072,0.058
-0.0465,-0.03,0.0165,0.0385,-0.032,-0.007,0.174,0.2925,0.28,0.3065,0.207,0.2035,-0.071,-0.069,0.0565
-0.0485,-0.0335,0.015,0.0415,-0.032,-0.0095,0.174,0.296,0.282,0.3085,0.208,0.204,-0.0715,-0.069,0.0575
-0.044,-0.032,0.012,0.038,-0.028,-0.01,0.1745,0.3,0.286,0.3125,0.211,0.208,-0.0705,-0.069,0.057
-0.0465,-0.035,0.0115,0.041,-0.0295,-0.0115,0.178,0.303,0.291,0.316,0.2145,0.2105,-0.069,-0.0725,0.0545
-0.0425,-0.033,0.01,0.038,-0.0265,-0.0115,0.176,0.305,0.292,0.3165,0.2165,0.212,-0.065,-0.0665,0.0545
-0.0365,-0.025,0.0115,0.031,-0.024,-0.0065,0.1715,0.305,0.292,0.318,0.2165,0.2125,-0.0635,-0.0655,0.0545
-0.0365,-0.0215,0.015,0.029,-0.026,-0.003,0.1725,0.305,0.292,0.318,0.2165,0.211,-0.065,-0.0635,0.0525
-0.0305,-0.0145,0.016,0.023,-0.0235,0.001,0.171,0.3055,0.295,0.3175,0.2155,0.2125,-0.064,-0.0575,0.0515
-0.03,-0.0125,0.0175,0.0215,-0.024,0.003,0.1695,0.305,0.295,0.316,0.217,0.211,-0.064,-0.058,0.0525
-0.03,-0.0135,0.0165,0.022,-0.0235,0.0015,0.172,0.3075,0.297,0.317,0.2185,0.2115,-0.0635,-0.0595,0.0515
-0.029,-0.0115,0.0175,0.021,-0.0235,0.0025,0.171,0.3105,0.301,0.32,0.219,0.214,-0.062,-0.061,0.0535
-0.029,-0.01,0.019,0.02,-0.0245,0.0045,0.173,0.313,0.302,0.321,0.2195,0.216,-0.062,-0.0605,0.051
-0.0295,-0.006,0.023,0.018,-0.0265,0.0085,0.173,0.313,0.302,0.321,0.2205,0.2145,-0.063,-0.0555,0.0495
-0.029,-0.0075,0.021,0.0185,-0.0255,0.0065,0.1685,0.309,0.301,0.321,0.22,0.213,-0.062,-0.052,0.0515
-0.0265,-0.0105,0.016,0.0185,-0.022,0.003,0.1675,0.3085,0.302,0.3205,0.22,0.213,-0.061,-0.0545,0.053
-0.0295,-0.012,0.017,0.021,-0.0235,0.0025,0.17,0.3135,0.3065,0.324,0.223,0.215,-0.061,-0.0575,0.054
-0.0345,-0.0195,0.015,0.0275,-0.0255,-0.002,0.173,0.3185,0.3105,0.3285,0.2255,0.218,-0.0605,-0.062,0.0545
-0.0345,-0.022,0.012,0.0285,-0.0235,-0.005,0.1725,0.3185,0.3115,0.329,0.2255,0.2185,-0.0595,-0.0625,0.055
-0.0345,-0.0225,0.012,0.029,-0.024,-0.005,0.1715,0.317,0.311,0.328,0.2245,0.2175,-0.06,-0.0645,0.054
-0.0335,-0.023,0.0105,0.0285,-0.0225,-0.006,0.1715,0.3185,0.3125,0.3285,0.2265,0.2175,-0.0595,-0.068,0.0545
-0.029,-0.0235,0.0055,0.0265,-0.0175,-0.009,0.1715,0.3215,0.3155,0.3325,0.2275,0.2185,-0.0575,-0.0625,0.0535
-0.026,-0.024,0.002,0.025,-0.014,-0.011,0.1705,0.3215,0.3155,0.3335,0.2275,0.2185,-0.058,-0.0615,0.054
-0.0285,-0.025,0.004,0.027,-0.0165,-0.0105,0.1725,0.3225,0.317,0.336,0.229,0.22,-0.0575,-0.067,0.054
-0.04,-0.029,0.0105,0.0345,-0.0255,-0.009,0.1765,0.3245,0.3205,0.338,0.2325,0.221,-0.0585,-0.0695,0.052
-0.037,-0.0265,0.0105,0.032,-0.024,-0.008,0.176,0.327,0.323,0.34,0.234,0.2225,-0.056,-0.0655,0.0515
-0.027,-0.0185,0.009,0.023,-0.0185,-0.0045,0.1725,0.3295,0.3265,0.342,0.2355,0.224,-0.0525,-0.062,0.05
-0.023,-0.012,0.011,0.018,-0.0175,-0.0005,0.171,0.3275,0.3235,0.341,0.235,0.2235,-0.052,-0.059,0.049
-0.019,-0.007,0.012,0.013,-0.0155,0.0025,0.17,0.329,0.323,0.341,0.233,0.2225,-0.0495,-0.053,0.049
-0.0185,-0.003,0.015,0.011,-0.017,0.006,0.166,0.33,0.3255,0.341,0.235,0.2215,-0.0495,-0.0495,0.0485
-0.0205,-0.003,0.0175,0.012,-0.0195,0.0075,0.165,0.331,0.3265,0.3435,0.235,0.222,-0.0475,-0.047,0.049
-0.0205,-0.001,0.0195,0.0115,-0.02,0.009,0.166,0.333,0.3295,0.3455,0.236,0.222,-0.047,-0.0475,0.0485
-0.016,0.003,0.019,0.0065,-0.018,0.011,0.1665,0.336,0.3335,0.348,0.239,0.2235,-0.0475,-0.0475,0.0475
-0.016,0.0025,0.019,0.007,-0.018,0.0105,0.1655,0.337,0.333,0.347,0.2365,0.223,-0.047,-0.045,0.048
-0.0115,0.0035,0.0155,0.004,-0.0135,0.0095,0.1625,0.336,0.3335,0.3465,0.236,0.222,-0.0455,-0.042,0.049
-0.006,0.005,0.011,0.0005,-0.0085,0.008,0.1615,0.339,0.3375,0.3505,0.238,0.224,-0.045,-0.0425,0.051
-0.007,0.004,0.011,0.002,-0.009,0.0075,0.16,0.339,0.337,0.352,0.239,0.225,-0.044,-0.046,0.052
-0.011,-0.002,0.009,0.0065,-0.01,0.0035,0.1615,0.3445,0.3415,0.355,0.2425,0.2285,-0.043,-0.05,0.0525
-0.0135,-0.0075,0.006,0.0105,-0.01,-0.001,0.1625,0.348,0.346,0.3585,0.2455,0.2315,-0.043,-0.055,0.0535
-0.0125,-0.0065,0.0065,0.01,-0.01,0,0.1625,0.348,0.3475,0.36,0.2475,0.2325,-0.042,-0.055,0.0535
-0.0105,-0.005,0.005,0.008,-0.008,0,0.162,0.351,0.35,0.3615,0.247,0.2335,-0.042,-0.0515,0.0525
-0.005,-0.0005,0.0045,0.003,-0.005,0.002,0.1595,0.3505,0.3495,0.363,0.2465,0.2345,-0.039,-0.05,0.0515
-0.007,-0.0025,0.0045,0.005,-0.006,0.001,0.156,0.351,0.35,0.362,0.248,0.234,-0.04,-0.0525,0.053
-0.01,-0.0045,0.0055,0.0075,-0.008,0.0005,0.1565,0.3555,0.3525,0.3645,0.249,0.235,-0.039,-0.051,0.0525
-0.0155,-0.0055,0.01,0.011,-0.013,0.002,0.164,0.359,0.356,0.368,0.25,0.235,-0.0395,-0.0515,0.05
-0.0165,-0.006,0.0105,0.012,-0.014,0.0025,0.162,0.361,0.359,0.367,0.2505,0.2345,-0.041,-0.054,0.049
-0.0115,-0.0015,0.01,0.0065,-0.011,0.0045,0.158,0.3615,0.359,0.3655,0.249,0.234,-0.038,-0.0535,0.049
-0.008,0.005,0.0125,0.002,-0.0105,0.009,0.1575,0.361,0.358,0.365,0.2465,0.2325,-0.037,-0.049,0.0485
-0.0025,0.0115,0.014,-0.0045,-0.0085,0.013,0.154,0.3605,0.357,0.3645,0.2465,0.233,-0.0355,-0.042,0.0475
0.0035,0.011,0.0075,-0.007,-0.002,0.009,0.1535,0.362,0.362,0.366,0.2495,0.234,-0.034,-0.04,0.0475
0.0045,0.0085,0.0045,-0.0065,-0.0005,0.007,0.1545,0.3665,0.365,0.3705,0.251,0.2375,-0.0335,-0.0415,0.0465
0.0025,0.01,0.0075,-0.006,-0.003,0.009,0.1535,0.3675,0.3655,0.371,0.2515,0.2375,-0.0345,-0.0415,0.047
0.0035,0.01,0.0065,-0.0065,-0.002,0.0085,0.1545,0.37,0.37,0.3725,0.2535,0.2395,-0.031,-0.0415,0.0455
0.005,0.0115,0.006,-0.008,-0.0005,0.009,0.153,0.3725,0.371,0.3745,0.2535,0.2395,-0.03,-0.0405,0.045
0.011,0.0165,0.0055,-0.0135,0.0025,0.011,0.149,0.3705,0.369,0.3735,0.251,0.2365,-0.031,-0.0335,0.0455
0.0095,0.013,0.0035,-0.011,0.0025,0.0085,0.151,0.374,0.3695,0.3755,0.251,0.2385,-0.028,-0.035,0.046
0.0075,0.0085,0.001,-0.008,0.003,0.005,0.1515,0.376,0.372,0.3785,0.2525,0.2385,-0.03,-0.0405,0.0465
0.0035,0.004,0,-0.0035,0.0015,0.002,0.152,0.3795,0.377,0.381,0.255,0.241,-0.0295,-0.0435,0.047
-0.0005,0.001,0.0015,0,-0.0015,0.001,0.152,0.383,0.378,0.382,0.2545,0.24,-0.0295,-0.046,0.049
0.0005,0.0055,0.005,-0.003,-0.0025,0.005,0.148,0.3825,0.377,0.382,0.2525,0.2385,-0.029,-0.0445,0.048
0.002,0.0115,0.01,-0.0065,-0.004,0.011,0.1465,0.3825,0.376,0.3805,0.252,0.238,-0.0275,-0.042,0.0495
0.01,0.02,0.01,-0.015,0,0.015,0.1445,0.3825,0.375,0.38,0.252,0.238,-0.025,-0.037,0.0505
0.0095,0.0195,0.01,-0.0145,-0.0005,0.015,0.1415,0.384,0.376,0.38,0.251,0.237,-0.024,-0.038,0.051
0.006,0.0175,0.0115,-0.0115,-0.0035,0.015,0.1425,0.387,0.377,0.381,0.251,0.2365,-0.0245,-0.038,0.0525
0.005,0.0145,0.0095,-0.0095,-0.0025,0.012,0.1465,0.394,0.383,0.387,0.2555,0.242,-0.022,-0.0395,0.051
0.0065,0.006,-0.0005,-0.006,0.003,0.003,0.15,0.4,0.388,0.389,0.258,0.245,-0.0235,-0.045,0.0505
0.0075,-0.004,-0.0115,-0.0015,0.009,-0.008,0.154,0.4045,0.3895,0.3915,0.2605,0.247,-0.024,-0.051,0.05
0.009,-0.002,-0.011,-0.0035,0.01,-0.0065,0.153,0.4045,0.3905,0.3935,0.26,0.2465,-0.024,-0.053,0.05
0.017,0.005,-0.012,-0.0105,0.014,-0.0035,0.15,0.404,0.3885,0.392,0.2575,0.246,-0.022,-0.0505,0.0505
0.02,0.0075,-0.0125,-0.0135,0.016,-0.0025,0.147,0.405,0.387,0.3905,0.257,0.247,-0.0195,-0.0475,0.0515
0.0205,0.0135,-0.007,-0.017,0.0135,0.0035,0.146,0.406,0.388,0.391,0.257,0.2445,-0.02,-0.0435,0.051
0.023,0.0155,-0.0075,-0.019,0.015,0.004,0.148,0.4095,0.39,0.392,0.259,0.2465,-0.018,-0.045,0.0525
0.029,0.0205,-0.0085,-0.0245,0.0185,0.006,0.147,0.413,0.392,0.393,0.261,0.248,-0.0155,-0.0415,0.052
0.0305,0.0215,-0.009,-0.0255,0.0195,0.0065,0.1465,0.415,0.392,0.392,0.262,0.2485,-0.0145,-0.041,0.052
0.0365,0.0195,-0.017,-0.0275,0.0265,0.001,0.142,0.4135,0.39,0.3885,0.261,0.247,-0.0125,-0.0435,0.056
0.0355,0.0165,-0.019,-0.026,0.027,-0.001,0.1435,0.4125,0.391,0.3895,0.26,0.2465,-0.013,-0.0445,0.0565
0.0325,0.012,-0.0205,-0.022,0.0265,-0.0045,0.1455,0.415,0.3925,0.39,0.2605,0.248,-0.015,-0.051,0.0565
0.028,0.005,-0.023,-0.0165,0.025,-0.009,0.147,0.419,0.3935,0.3895,0.261,0.2475,-0.016,-0.0575,0.059
0.022,-0.0025,-0.0245,-0.0095,0.023,-0.0135,0.151,0.423,0.396,0.392,0.2625,0.2495,-0.0165,-0.0595,0.0615
0.027,-0.0045,-0.0315,-0.0105,0.029,-0.018,0.15,0.4265,0.3975,0.394,0.2615,0.2515,-0.016,-0.0585,0.0615
0.0225,-0.0065,-0.029,-0.0075,0.0255,-0.018,0.15,0.426,0.396,0.39,0.2585,0.2495,-0.0165,-0.061,0.0635
0.024,-0.005,-0.0295,-0.0095,0.0265,-0.0175,0.1475,0.425,0.393,0.3855,0.258,0.2465,-0.017,-0.0655,0.0645
0.028,-0.0065,-0.0345,-0.0105,0.031,-0.0205,0.144,0.4255,0.3935,0.3865,0.2575,0.248,-0.0145,-0.0645,0.0665
0.0315,-0.008,-0.0395,-0.011,0.035,-0.024,0.143,0.426,0.3925,0.386,0.2555,0.248,-0.012,-0.0645,0.068
0.025,-0.0075,-0.0325,-0.0085,0.0285,-0.02,0.1505,0.433,0.3955,0.389,0.2585,0.2505,-0.0145,-0.0665,0.0655
0.0215,-0.005,-0.027,-0.008,0.024,-0.016,0.153,0.435,0.3965,0.3905,0.2605,0.252,-0.0145,-0.063,0.065
0.028,-0.004,-0.032,-0.0115,0.0295,-0.018,0.1465,0.4305,0.392,0.3855,0.256,0.248,-0.013,-0.065,0.0665
0.031,0.0005,-0.0305,-0.0155,0.0305,-0.015,0.1425,0.429,0.3895,0.383,0.253,0.247,-0.011,-0.062,0.066
0.035,0.006,-0.029,-0.02,0.0315,-0.0115,0.1405,0.429,0.388,0.3825,0.2545,0.2465,-0.01,-0.056,0.065
0.032,0.006,-0.026,-0.0185,0.0285,-0.01,0.141,0.4295,0.387,0.3805,0.251,0.2455,-0.0115,-0.0565,0.066
0.0365,0.009,-0.0275,-0.0225,0.032,-0.009,0.1385,0.4285,0.3845,0.3785,0.249,0.245,-0.011,-0.0565,0.067
0.038,0.009,-0.0285,-0.023,0.033,-0.0095,0.138,0.4325,0.3845,0.3785,0.249,0.2455,-0.012,-0.0565,0.069
0.0395,0.013,-0.0265,-0.026,0.033,-0.007,0.1395,0.4345,0.386,0.3785,0.2485,0.246,-0.0115,-0.0475,0.069
0.0445,0.015,-0.03,-0.0295,0.037,-0.0075,0.1365,0.432,0.3835,0.3755,0.2465,0.2445,-0.0125,-0.046,0.068
0.0485,0.016,-0.0325,-0.032,0.04,-0.0085,0.1315,0.4305,0.379,0.3715,0.2425,0.241,-0.0135,-0.0495,0.071
0.0485,0.0155,-0.033,-0.032,0.0405,-0.0085,0.1305,0.4295,0.378,0.37,0.242,0.24,-0.0135,-0.051,0.0745
0.0445,0.0105,-0.034,-0.027,0.039,-0.0115,0.131,0.4305,0.378,0.371,0.241,0.24,-0.014,-0.0535,0.076
0.0425,0.0105,-0.0315,-0.0265,0.0365,-0.0105,0.1315,0.433,0.379,0.3695,0.2415,0.2415,-0.0155,-0.054,0.077
0.0355,0.006,-0.0295,-0.0205,0.032,-0.0115,0.136,0.4355,0.381,0.3715,0.2435,0.2425,-0.019,-0.059,0.076
0.0315,0.0025,-0.0295,-0.0165,0.0305,-0.0135,0.1395,0.4375,0.382,0.372,0.2445,0.245,-0.019,-0.059,0.076
0.0315,0.002,-0.029,-0.0165,0.03,-0.0135,0.1375,0.439,0.38,0.371,0.2435,0.2455,-0.019,-0.0605,0.0795
0.0335,0.002,-0.0315,-0.0175,0.0325,-0.0145,0.136,0.4385,0.3775,0.3705,0.243,0.244,-0.018,-0.0625,0.078
0.035,0,-0.0355,-0.017,0.035,-0.018,0.135,0.438,0.376,0.3685,0.242,0.243,-0.018,-0.062,0.079
0.0345,-0.0005,-0.035,-0.0165,0.034,-0.018,0.136,0.4395,0.3755,0.367,0.2415,0.2445,-0.0185,-0.0605,0.0805
0.033,0.001,-0.0315,-0.0165,0.032,-0.0155,0.139,0.4445,0.379,0.368,0.245,0.249,-0.017,-0.062,0.0775
0.036,0.0025,-0.0335,-0.019,0.0345,-0.0155,0.1385,0.4465,0.38,0.3685,0.2455,0.2505,-0.015,-0.0655,0.0785
0.038,0.006,-0.0325,-0.0215,0.035,-0.0135,0.1365,0.446,0.378,0.368,0.245,0.2505,-0.015,-0.0605,0.078
0.04,0.0105,-0.0295,-0.025,0.0345,-0.0095,0.1365,0.447,0.377,0.3685,0.245,0.2515,-0.0155,-0.055,0.076
0.048,0.019,-0.0285,-0.033,0.038,-0.005,0.1345,0.445,0.3745,0.3665,0.2435,0.2515,-0.014,-0.0485,0.0765
0.0495,0.0255,-0.024,-0.0375,0.0365,0.001,0.133,0.444,0.374,0.3635,0.244,0.251,-0.014,-0.044,0.076
0.0485,0.0265,-0.022,-0.0375,0.035,0.0025,0.1325,0.444,0.3735,0.363,0.244,0.252,-0.013,-0.043,0.076
0.045,0.0235,-0.022,-0.034,0.0335,0.0005,0.1345,0.444,0.3725,0.3635,0.244,0.2535,-0.0135,-0.0425,0.077
0.047,0.0265,-0.02,-0.0365,0.0335,0.003,0.1375,0.4455,0.374,0.365,0.245,0.255,-0.013,-0.04,0.0765
0.051,0.033,-0.018,-0.0415,0.034,0.0075,0.136,0.443,0.373,0.363,0.2445,0.2555,-0.0115,-0.036,0.0745
0.056,0.0375,-0.0185,-0.0465,0.037,0.0095,0.1315,0.4375,0.369,0.3605,0.2445,0.254,-0.01,-0.031,0.075
0.0575,0.0395,-0.0175,-0.048,0.037,0.011,0.129,0.4365,0.3685,0.3595,0.2435,0.253,-0.0095,-0.0245,0.076
0.0515,0.036,-0.015,-0.0435,0.033,0.0105,0.1315,0.437,0.37,0.36,0.2455,0.256,-0.01,-0.0275,0.0755
0.0495,0.0345,-0.015,-0.042,0.032,0.01,0.1325,0.436,0.3695,0.359,0.2475,0.258,-0.0095,-0.0315,0.077
0.045,0.032,-0.0135,-0.038,0.029,0.009,0.1335,0.437,0.371,0.362,0.249,0.262,-0.0075,-0.0345,0.077
0.043,0.03,-0.013,-0.036,0.028,0.0085,0.136,0.438,0.3715,0.365,0.253,0.2675,-0.0055,-0.035,0.076
0.045,0.0355,-0.01,-0.04,0.027,0.013,0.1335,0.435,0.369,0.3625,0.2525,0.2675,-0.004,-0.028,0.0755
0.0475,0.0415,-0.006,-0.0445,0.0265,0.0175,0.1345,0.4325,0.3695,0.3645,0.255,0.2685,-0.004,-0.023,0.0715
0.052,0.0435,-0.008,-0.0475,0.0295,0.018,0.135,0.4305,0.3715,0.3655,0.258,0.2705,-0.003,-0.019,0.071
0.0515,0.0445,-0.007,-0.0475,0.029,0.0185,0.135,0.4305,0.372,0.367,0.258,0.273,-0.002,-0.017,0.07
0.043,0.0445,0.0015,-0.0435,0.0205,0.023,0.139,0.4315,0.3705,0.368,0.2595,0.275,-0.0045,-0.017,0.067
0.037,0.046,0.009,-0.0415,0.014,0.0275,0.141,0.427,0.3685,0.367,0.26,0.2735,-0.0065,-0.018,0.064
0.0375,0.0495,0.012,-0.0435,0.0125,0.031,0.1415,0.422,0.366,0.3655,0.26,0.2715,-0.011,-0.0135,0.0595
0.0415,0.056,0.014,-0.0485,0.0135,0.035,0.14,0.417,0.363,0.3635,0.2605,0.2715,-0.0125,-0.0055,0.057
0.0455,0.0665,0.021,-0.056,0.012,0.044,0.139,0.4115,0.3595,0.3625,0.257,0.27,-0.012,0.003,0.0555
0.043,0.072,0.029,-0.0575,0.007,0.0505,0.14,0.4075,0.3565,0.3585,0.256,0.269,-0.015,0.0115,0.054
0.039,0.0715,0.0325,-0.055,0.003,0.052,0.1415,0.4045,0.3555,0.3595,0.257,0.2695,-0.017,0.0125,0.0505
0.035,0.0735,0.039,-0.054,-0.002,0.056,0.1445,0.4025,0.3535,0.3605,0.2565,0.2685,-0.021,0.014,0.0495
0.0335,0.0765,0.0435,-0.055,-0.005,0.06,0.1475,0.398,0.351,0.356,0.2565,0.2665,-0.023,0.0165,0.048
0.031,0.0775,0.047,-0.054,-0.0085,0.0625,0.149,0.393,0.3475,0.3545,0.254,0.264,-0.024,0.016,0.047
0.0305,0.077,0.047,-0.0535,-0.0085,0.062,0.1465,0.3855,0.3415,0.35,0.251,0.2615,-0.0255,0.019,0.0475
0.027,0.0755,0.049,-0.051,-0.0115,0.0625,0.1475,0.3785,0.337,0.3455,0.2485,0.258,-0.0305,0.021,0.048
0.016,0.0715,0.055,-0.0435,-0.0195,0.0635,0.1535,0.376,0.335,0.3445,0.248,0.2565,-0.035,0.0185,0.047
0.0125,0.068,0.0555,-0.04,-0.022,0.062,0.1575,0.374,0.334,0.3435,0.2475,0.258,-0.0375,0.0145,0.0465
0.0055,0.0615,0.0565,-0.0335,-0.026,0.059,0.164,0.372,0.333,0.344,0.248,0.258,-0.0415,0.008,0.048
-0.0025,0.052,0.055,-0.0245,-0.029,0.0535,0.1675,0.368,0.331,0.3425,0.2475,0.257,-0.0445,0,0.0465
-0.0065,0.047,0.0535,-0.02,-0.03,0.0505,0.167,0.3615,0.325,0.34,0.2435,0.254,-0.0475,-0.0035,0.0465
-0.0095,0.046,0.056,-0.018,-0.033,0.051,0.167,0.3545,0.3205,0.3345,0.24,0.2505,-0.05,-0.0015,0.047
-0.0095,0.043,0.0525,-0.0165,-0.031,0.0475,0.167,0.3495,0.316,0.3305,0.237,0.249,-0.0525,-0.0005,0.0485
-0.0135,0.0385,0.052,-0.012,-0.033,0.0455,0.1685,0.3445,0.3125,0.3285,0.236,0.2475,-0.0555,-0.006,0.0475
-0.02,0.0355,0.0555,-0.0075,-0.038,0.0455,0.174,0.3425,0.3095,0.327,0.2355,0.2475,-0.0575,-0.011,0.0475
-0.02,0.0345,0.054,-0.007,-0.037,0.0445,0.1745,0.3395,0.3055,0.325,0.2335,0.246,-0.06,-0.01,0.0465
-0.0225,0.0335,0.056,-0.005,-0.0395,0.045,0.1735,0.333,0.2995,0.3205,0.2295,0.2415,-0.0625,-0.0075,0.0465
-0.0205,0.038,0.0585,-0.0085,-0.04,0.0485,0.1725,0.3265,0.293,0.3145,0.225,0.238,-0.0635,-0.0045,0.048
-0.019,0.041,0.06,-0.0105,-0.04,0.0505,0.1695,0.3185,0.2885,0.3095,0.221,0.233,-0.0665,-0.0045,0.047
-0.023,0.0415,0.0645,-0.009,-0.044,0.053,0.1685,0.3115,0.2835,0.3055,0.215,0.2275,-0.0715,-0.002,0.048
-0.023,0.043,0.066,-0.01,-0.0445,0.0545,0.169,0.3075,0.2785,0.3,0.212,0.225,-0.075,-0.0015,0.0475
-0.027,0.036,0.0635,-0.0045,-0.0455,0.05,0.171,0.3025,0.272,0.296,0.2085,0.2215,-0.077,-0.006,0.05
-0.0315,0.0355,0.067,-0.002,-0.0495,0.0515,0.172,0.2955,0.267,0.2915,0.2055,0.218,-0.0795,-0.0045,0.0515
-0.0335,0.0375,0.0715,-0.0015,-0.053,0.0545,0.1725,0.2895,0.2625,0.2885,0.2035,0.215,-0.0825,-0.004,0.0505
-0.0315,0.0345,0.066,-0.0015,-0.049,0.05,0.1705,0.281,0.2545,0.282,0.1975,0.211,-0.0855,-0.006,0.0525
-0.0355,0.0295,0.065,0.003,-0.0505,0.047,0.169,0.2735,0.248,0.274,0.192,0.2065,-0.0915,-0.01,0.055
-0.044,0.023,0.067,0.011,-0.056,0.045,0.172,0.2685,0.243,0.272,0.189,0.2055,-0.0935,-0.015,0.056
-0.0435,0.019,0.0625,0.0125,-0.0535,0.0405,0.172,0.264,0.239,0.2705,0.187,0.205,-0.0935,-0.0195,0.058
-0.0495,0.012,0.0615,0.019,-0.056,0.037,0.173,0.261,0.236,0.2685,0.1875,0.2025,-0.0985,-0.0265,0.059
-0.062,0.002,0.0635,0.03,-0.063,0.033,0.1785,0.258,0.2345,0.267,0.186,0.2025,-0.102,-0.034,0.059
-0.0695,-0.005,0.0645,0.0375,-0.0675,0.0295,0.1785,0.2525,0.23,0.26,0.18,0.1975,-0.107,-0.0385,0.061
-0.0685,-0.005,0.0635,0.037,-0.0665,0.0295,0.1755,0.246,0.2235,0.255,0.1775,0.1935,-0.109,-0.0325,0.0615
-0.0675,-0.0085,0.059,0.038,-0.0635,0.0255,0.1745,0.2425,0.22,0.252,0.1755,0.1935,-0.11,-0.033,0.0635
-0.071,-0.014,0.057,0.0425,-0.0645,0.0215,0.174,0.239,0.217,0.25,0.175,0.1915,-0.1125,-0.043,0.066
-0.077,-0.0165,0.0605,0.047,-0.069,0.022,0.177,0.239,0.2175,0.2515,0.1765,0.1925,-0.112,-0.048,0.065
-0.0785,-0.018,0.0605,0.0485,-0.0695,0.021,0.1775,0.2355,0.215,0.248,0.174,0.192,-0.113,-0.049,0.066
-0.075,-0.0165,0.0585,0.046,-0.067,0.021,0.1745,0.228,0.21,0.244,0.17,0.1895,-0.1155,-0.047,0.0665
-0.072,-0.013,0.059,0.043,-0.066,0.023,0.173,0.224,0.2045,0.2395,0.1665,0.187,-0.1175,-0.042,0.066
-0.068,-0.0065,0.0615,0.0375,-0.065,0.0275,0.1685,0.219,0.2,0.2375,0.163,0.185,-0.116,-0.038,0.0665
-0.0705,-0.005,0.0655,0.038,-0.0685,0.03,0.1665,0.214,0.196,0.233,0.159,0.1815,-0.1185,-0.038,0.067
-0.076,-0.0095,0.066,0.043,-0.0715,0.0285,0.166,0.2115,0.1925,0.23,0.158,0.178,-0.1205,-0.0385,0.0685
-0.0775,-0.011,0.066,0.0445,-0.072,0.0275,0.166,0.2075,0.1905,0.2285,0.155,0.177,-0.122,-0.04,0.0695
-0.0785,-0.0105,0.068,0.045,-0.0735,0.0285,0.17,0.207,0.1895,0.2275,0.156,0.176,-0.125,-0.039,0.0685
-0.076,-0.009,0.067,0.043,-0.072,0.029,0.1675,0.205,0.1875,0.2265,0.1545,0.175,-0.125,-0.0375,0.069
-0.0715,-0.0075,0.064,0.0395,-0.068,0.028,0.1605,0.198,0.1805,0.222,0.1495,0.1705,-0.127,-0.037,0.071
-0.0745,-0.0105,0.064,0.043,-0.0695,0.0265,0.16,0.194,0.177,0.22,0.1475,0.167,-0.128,-0.039,0.0745
-0.079,-0.0115,0.0675,0.0455,-0.0735,0.028,0.16,0.1945,0.177,0.219,0.1445,0.1675,-0.13,-0.0395,0.074
-0.083,-0.0175,0.0655,0.0505,-0.0745,0.024,0.163,0.193,0.1775,0.2175,0.1455,0.1675,-0.132,-0.043,0.0755
-0.0885,-0.0245,0.0635,0.0565,-0.076,0.0195,0.1655,0.191,0.1755,0.2155,0.144,0.1675,-0.133,-0.0515,0.077
-0.094,-0.029,0.065,0.0615,-0.0795,0.018,0.1665,0.192,0.175,0.215,0.144,0.167,-0.1355,-0.058,0.0755
-0.0955,-0.0335,0.0625,0.0645,-0.079,0.0145,0.1665,0.1885,0.173,0.2115,0.143,0.166,-0.136,-0.0635,0.078
-0.0895,-0.029,0.06,0.0595,-0.075,0.0155,0.165,0.1855,0.1685,0.2095,0.1415,0.163,-0.1365,-0.0585,0.0765
-0.0875,-0.0315,0.056,0.0595,-0.072,0.0125,0.166,0.1835,0.1685,0.2085,0.1415,0.1625,-0.137,-0.0575,0.078
-0.09,-0.0355,0.0545,0.063,-0.0725,0.01,0.1665,0.1815,0.1675,0.2075,0.14,0.162,-0.139,-0.0625,0.079
-0.095,-0.035,0.0605,0.065,-0.078,0.013,0.1695,0.1835,0.1685,0.2085,0.141,0.163,-0.14,-0.063,0.0775
-0.0985,-0.0355,0.063,0.0675,-0.081,0.0135,0.17,0.184,0.1675,0.2075,0.139,0.165,-0.138,-0.0635,0.08
-0.0945,-0.033,0.062,0.064,-0.0785,0.0145,0.169,0.183,0.167,0.207,0.1385,0.163,-0.139,-0.059,0.079
-0.088,-0.025,0.063,0.057,-0.076,0.019,0.167,0.1815,0.1665,0.204,0.1375,0.162,-0.1395,-0.0515,0.0765
-0.084,-0.018,0.066,0.051,-0.0755,0.024,0.1635,0.1775,0.1615,0.203,0.134,0.1605,-0.1385,-0.0495,0.0765
-0.083,-0.015,0.0675,0.049,-0.0755,0.026,0.162,0.175,0.159,0.2,0.131,0.1575,-0.1395,-0.05,0.0775
-0.086,-0.0165,0.0695,0.0515,-0.078,0.0265,0.164,0.1745,0.159,0.1995,0.131,0.1575,-0.1405,-0.05,0.0795
-0.0905,-0.018,0.0725,0.0545,-0.0815,0.027,0.165,0.1775,0.1595,0.201,0.133,0.159,-0.1405,-0.0505,0.081
-0.0895,-0.0145,0.0745,0.052,-0.082,0.03,0.1655,0.1775,0.1585,0.2,0.1325,0.158,-0.1425,-0.05,0.078
-0.0885,-0.0145,0.074,0.0515,-0.0815,0.03,0.165,0.174,0.156,0.199,0.13,0.1555,-0.143,-0.045,0.0775
-0.0865,-0.015,0.0715,0.0505,-0.079,0.0285,0.163,0.173,0.154,0.195,0.1285,0.1545,-0.144,-0.0445,0.079
-0.0825,-0.0145,0.068,0.049,-0.0755,0.0265,0.162,0.171,0.1525,0.194,0.1295,0.1545,-0.144,-0.0485,0.0805
-0.086,-0.0205,0.0655,0.053,-0.076,0.0225,0.165,0.1725,0.1535,0.197,0.1305,0.156,-0.1435,-0.053,0.083
-0.0905,-0.0255,0.0645,0.0585,-0.0775,0.0195,0.1665,0.1745,0.154,0.199,0.132,0.1575,-0.144,-0.0565,0.0835
-0.093,-0.031,0.062,0.062,-0.078,0.0155,0.167,0.175,0.156,0.1975,0.1325,0.1575,-0.145,-0.061,0.0835
-0.0945,-0.035,0.0595,0.065,-0.0775,0.012,0.169,0.176,0.158,0.198,0.1325,0.1575,-0.1475,-0.0675,0.0835
-0.0955,-0.0365,0.0595,0.066,-0.0775,0.0115,0.167,0.176,0.157,0.1985,0.133,0.158,-0.1475,-0.068,0.084
-0.091,-0.0345,0.0565,0.063,-0.074,0.011,0.1675,0.1745,0.157,0.1985,0.133,0.1585,-0.1455,-0.066,0.0835
-0.092,-0.0385,0.053,0.0655,-0.0725,0.007,0.1655,0.1725,0.1545,0.1975,0.1315,0.1565,-0.145,-0.069,0.0855
-0.096,-0.042,0.054,0.0695,-0.0755,0.006,0.165,0.172,0.153,0.197,0.1325,0.1575,-0.1475,-0.0725,0.0845
-0.101,-0.043,0.058,0.072,-0.0795,0.0075,0.1705,0.1745,0.156,0.199,0.1345,0.16,-0.149,-0.074,0.0815
-0.1015,-0.0445,0.057,0.0735,-0.0795,0.0065,0.171,0.1745,0.157,0.1995,0.136,0.16,-0.1465,-0.0725,0.082
-0.096,-0.04,0.056,0.068,-0.0765,0.008,0.168,0.173,0.157,0.2,0.136,0.1595,-0.1455,-0.0705,0.081
-0.0945,-0.0355,0.0585,0.065,-0.077,0.0115,0.166,0.173,0.154,0.198,0.1345,0.1585,-0.145,-0.065,0.0815
-0.0895,-0.027,0.0625,0.0585,-0.076,0.0175,0.163,0.169,0.151,0.196,0.132,0.1575,-0.143,-0.0585,0.081
-0.0885,-0.021,0.067,0.055,-0.0775,0.023,0.1615,0.1655,0.1505,0.1945,0.1295,0.1545,-0.147,-0.0575,0.0785
-0.088,-0.0185,0.0695,0.0535,-0.079,0.0255,0.163,0.1675,0.151,0.195,0.132,0.156,-0.145,-0.0565,0.0785
-0.087,-0.0175,0.069,0.0525,-0.078,0.0255,0.1645,0.17,0.153,0.197,0.1315,0.157,-0.144,-0.0565,0.079
-0.0875,-0.0185,0.0685,0.053,-0.078,0.025,0.1645,0.171,0.1525,0.1965,0.1315,0.1555,-0.1445,-0.057,0.079
-0.0875,-0.016,0.0715,0.052,-0.0795,0.028,0.163,0.169,0.152,0.1955,0.131,0.157,-0.1425,-0.0525,0.0785
-0.086,-0.0135,0.0725,0.05,-0.0795,0.0295,0.1595,0.1665,0.1495,0.193,0.128,0.1545,-0.1445,-0.05,0.08
-0.088,-0.0155,0.073,0.052,-0.0805,0.029,0.158,0.1635,0.148,0.1915,0.1275,0.1515,-0.1455,-0.0485,0.0815
-0.093,-0.0195,0.0735,0.0565,-0.0835,0.027,0.1585,0.165,0.149,0.193,0.128,0.152,-0.1475,-0.0515,0.081
-0.092,-0.023,0.069,0.0575,-0.0805,0.023,0.1605,0.1685,0.1495,0.196,0.132,0.1535,-0.146,-0.0565,0.082
-0.092,-0.0265,0.066,0.0595,-0.079,0.0195,0.162,0.168,0.151,0.198,0.1325,0.154,-0.144,-0.0575,0.0835
-0.0985,-0.032,0.0665,0.0655,-0.083,0.0175,0.1625,0.1705,0.1545,0.1995,0.1335,0.1555,-0.146,-0.0625,0.083
-0.1025,-0.0355,0.067,0.069,-0.085,0.016,0.1645,0.172,0.1565,0.2,0.135,0.1555,-0.1475,-0.0665,0.0825
-0.096,-0.0325,0.064,0.0645,-0.0805,0.016,0.1615,0.172,0.1555,0.1995,0.1325,0.1535,-0.147,-0.063,0.082
-0.0945,-0.0335,0.061,0.0645,-0.078,0.0135,0.1615,0.172,0.1555,0.2015,0.1335,0.154,-0.1465,-0.0635,0.081
-0.098,-0.037,0.0615,0.0675,-0.08,0.0125,0.1645,0.171,0.156,0.2025,0.135,0.154,-0.1475,-0.065,0.0815
-0.1005,-0.034,0.0665,0.0675,-0.084,0.0165,0.1675,0.175,0.1605,0.206,0.1375,0.158,-0.1485,-0.065,0.08
-0.1,-0.034,0.066,0.0675,-0.0835,0.016,0.171,0.178,0.1635,0.209,0.139,0.1615,-0.1475,-0.0655,0.078
-0.097,-0.0335,0.064,0.0655,-0.0805,0.015,0.169,0.176,0.161,0.207,0.1375,0.16,-0.145,-0.0645,0.0785
-0.09,-0.0275,0.0625,0.059,-0.0765,0.0175,0.1655,0.176,0.1595,0.2055,0.1375,0.1595,-0.1435,-0.0625,0.078
-0.086,-0.022,0.064,0.054,-0.075,0.021,0.1635,0.1755,0.1585,0.2045,0.1365,0.159,-0.143,-0.058,0.077
-0.0885,-0.0185,0.07,0.0535,-0.079,0.026,0.1615,0.175,0.1575,0.2035,0.1355,0.159,-0.1425,-0.052,0.078
-0.0885,-0.018,0.0705,0.0535,-0.0795,0.0265,0.1615,0.1755,0.16,0.2045,0.1355,0.1585,-0.143,-0.0495,0.077
-0.09,-0.0175,0.0725,0.054,-0.0815,0.0275,0.164,0.1755,0.1615,0.206,0.137,0.1585,-0.144,-0.052,0.0765
-0.089,-0.014,0.075,0.0515,-0.082,0.0305,0.1645,0.177,0.1625,0.206,0.1385,0.16,-0.1435,-0.0485,0.0765
-0.088,-0.0125,0.0755,0.0505,-0.082,0.0315,0.1645,0.1765,0.162,0.206,0.138,0.159,-0.143,-0.0455,0.0745
-0.0845,-0.0125,0.072,0.0485,-0.0785,0.03,0.161,0.172,0.16,0.2045,0.136,0.1565,-0.1435,-0.045,0.0765
-0.0815,-0.012,0.069,0.047,-0.0755,0.0285,0.1575,0.1705,0.1595,0.204,0.135,0.156,-0.1435,-0.0435,0.0785
-0.0835,-0.0125,0.071,0.048,-0.0775,0.029,0.1575,0.1715,0.1605,0.205,0.1355,0.1565,-0.1435,-0.048,0.0785
-0.0875,-0.0155,0.072,0.0515,-0.08,0.0285,0.1605,0.1745,0.163,0.2065,0.139,0.159,-0.1435,-0.05,0.079
-0.0915,-0.0215,0.07,0.057,-0.081,0.0245,0.1625,0.1755,0.1635,0.208,0.1405,0.1585,-0.145,-0.053,0.078
-0.093,-0.025,0.0685,0.059,-0.081,0.0215,0.162,0.1745,0.1645,0.2075,0.1395,0.1595,-0.144,-0.057,0.0775
-0.1,-0.03,0.07,0.065,-0.085,0.02,0.1655,0.176,0.164,0.2105,0.1415,0.161,-0.1445,-0.061,0.0805
-0.098,-0.0305,0.0675,0.0645,-0.083,0.0185,0.165,0.175,0.162,0.21,0.14,0.16,-0.143,-0.06,0.0795
-0.0945,-0.028,0.0665,0.0615,-0.081,0.0195,0.162,0.1735,0.1625,0.208,0.1385,0.161,-0.1415,-0.0545,0.0795
-0.095,-0.0295,0.066,0.0625,-0.0805,0.018,0.161,0.1745,0.163,0.2095,0.141,0.161,-0.142,-0.057,0.081
-0.0965,-0.031,0.066,0.064,-0.0815,0.0175,0.164,0.1775,0.1675,0.2115,0.1425,0.1625,-0.1415,-0.06,0.0795
-0.0955,-0.031,0.0645,0.0635,-0.08,0.0165,0.1645,0.1785,0.1675,0.2145,0.1435,0.1635,-0.142,-0.059,0.078
-0.092,-0.027,0.065,0.06,-0.0785,0.019,0.1625,0.1775,0.1655,0.2135,0.144,0.163,-0.1415,-0.0585,0.0765
-0.0945,-0.0245,0.0705,0.0595,-0.0825,0.023,0.162,0.1765,0.1655,0.212,0.1405,0.161,-0.1405,-0.053,0.076
-0.091,-0.021,0.07,0.056,-0.0805,0.0245,0.1595,0.1735,0.162,0.2095,0.1395,0.157,-0.1415,-0.0475,0.075
-0.086,-0.0135,0.0725,0.05,-0.0795,0.029,0.1555,0.1725,0.1605,0.207,0.14,0.158,-0.1395,-0.043,0.076
-0.0835,-0.0105,0.073,0.047,-0.0785,0.031,0.154,0.172,0.1605,0.2075,0.139,0.1575,-0.139,-0.0405,0.0765
-0.088,-0.0145,0.0735,0.0515,-0.081,0.0295,0.157,0.1725,0.1615,0.207,0.14,0.1575,-0.14,-0.047,0.076
-0.0895,-0.011,0.078,0.0505,-0.084,0.0335,0.1585,0.1735,0.162,0.2075,0.14,0.159,-0.1395,-0.0445,0.076
-0.0885,-0.008,0.08,0.0485,-0.0845,0.036,0.159,0.175,0.1615,0.208,0.139,0.1575,-0.14,-0.042,0.075
-0.084,-0.0075,0.0765,0.046,-0.0805,0.0345,0.155,0.1735,0.1605,0.208,0.14,0.157,-0.137,-0.0405,0.076
-0.0825,-0.0065,0.0755,0.0445,-0.079,0.0345,0.152,0.1715,0.16,0.206,0.138,0.155,-0.1375,-0.0375,0.077
-0.0895,-0.0115,0.0775,0.0505,-0.084,0.033,0.155,0.173,0.161,0.2055,0.1375,0.1555,-0.1405,-0.0425,0.0775
-0.0935,-0.017,0.0765,0.0555,-0.0855,0.03,0.1565,0.174,0.1605,0.2065,0.138,0.156,-0.142,-0.0475,0.078
-0.0965,-0.022,0.0745,0.0595,-0.086,0.0265,0.159,0.1755,0.1635,0.2095,0.1395,0.157,-0.1425,-0.051,0.079
-0.0915,-0.0185,0.0725,0.055,-0.082,0.027,0.161,0.176,0.167,0.2125,0.1435,0.16,-0.14,-0.052,0.077
-0.093,-0.0185,0.0745,0.056,-0.084,0.028,0.165,0.179,0.1695,0.213,0.144,0.1605,-0.1415,-0.0515,0.0775
-0.094,-0.022,0.0725,0.0585,-0.0835,0.0255,0.166,0.1795,0.1705,0.216,0.145,0.1605,-0.142,-0.0515,0.076
-0.09,-0.0225,0.0675,0.0565,-0.079,0.0225,0.1625,0.177,0.1695,0.214,0.145,0.161,-0.1395,-0.0515,0.0755
-0.092,-0.023,0.069,0.0575,-0.0805,0.023,0.163,0.1795,0.17,0.2155,0.145,0.1615,-0.1405,-0.0515,0.077
-0.0925,-0.021,0.072,0.057,-0.0825,0.0255,0.1665,0.1825,0.1735,0.221,0.148,0.165,-0.1395,-0.052,0.075
-0.093,-0.0195,0.074,0.0565,-0.0835,0.027,0.1695,0.186,0.1765,0.2245,0.1495,0.1685,-0.1385,-0.0495,0.073
-0.0885,-0.0145,0.074,0.052,-0.0815,0.0295,0.1675,0.185,0.175,0.224,0.1505,0.167,-0.138,-0.0465,0.0705
-0.0815,-0.007,0.0745,0.0445,-0.078,0.0335,0.1655,0.184,0.175,0.2215,0.15,0.1675,-0.1365,-0.0435,0.07
-0.0735,0.003,0.0765,0.0355,-0.075,0.04,0.1645,0.186,0.176,0.2225,0.151,0.167,-0.1365,-0.035,0.0685
-0.0705,0.011,0.0815,0.03,-0.076,0.046,0.163,0.186,0.176,0.2235,0.151,0.1675,-0.135,-0.0295,0.0695
-0.071,0.013,0.0845,0.0295,-0.078,0.049,0.1625,0.186,0.1765,0.223,0.1525,0.169,-0.136,-0.028,0.0675
-0.074,0.0135,0.0875,0.0305,-0.081,0.0505,0.162,0.186,0.1785,0.2235,0.1545,0.169,-0.136,-0.027,0.066
-0.076,0.017,0.0935,0.03,-0.0855,0.0555,0.1605,0.188,0.1795,0.2235,0.154,0.171,-0.1345,-0.0245,0.0675
-0.0735,0.0205,0.094,0.027,-0.084,0.057,0.158,0.1875,0.1775,0.222,0.1545,0.1705,-0.1355,-0.021,0.0655
-0.068,0.025,0.0925,0.0215,-0.0805,0.0585,0.154,0.184,0.1765,0.221,0.1535,0.1695,-0.136,-0.0135,0.066
-0.064,0.031,0.0945,0.017,-0.0795,0.0625,0.153,0.186,0.177,0.224,0.154,0.172,-0.1345,-0.0055,0.065
-0.066,0.031,0.0965,0.018,-0.0815,0.0635,0.1555,0.1885,0.1795,0.2265,0.1575,0.1745,-0.136,-0.007,0.0635
-0.0685,0.032,0.1005,0.0185,-0.0845,0.066,0.157,0.19,0.1815,0.226,0.1575,0.1745,-0.1375,-0.0085,0.063
-0.0725,0.032,0.1045,0.0205,-0.089,0.068,0.164,0.1955,0.1875,0.23,0.16,0.177,-0.1385,-0.008,0.061
-0.0725,0.0345,0.1075,0.0195,-0.09,0.071,0.1675,0.199,0.192,0.235,0.164,0.18,-0.141,-0.0055,0.058
-0.07,0.037,0.107,0.0165,-0.089,0.072,0.1695,0.2055,0.197,0.2395,0.169,0.185,-0.14,-0.0045,0.057
-0.0615,0.048,0.1095,0.007,-0.086,0.079,0.166,0.206,0.1995,0.2425,0.172,0.188,-0.135,0.0045,0.0575
-0.055,0.068,0.123,-0.006,-0.089,0.095,0.156,0.2,0.1955,0.239,0.1685,0.1835,-0.1325,0.019,0.0585
-0.0565,0.052,0.1085,0.0025,-0.0825,0.0805,0.164,0.209,0.2035,0.246,0.175,0.1905,-0.132,0.0085,0.058
-0.0585,0.0285,0.087,0.015,-0.073,0.058,0.177,0.222,0.2155,0.258,0.187,0.2015,-0.13,-0.0105,0.0555
-0.057,0.036,0.093,0.0105,-0.075,0.0645,0.1775,0.2255,0.2185,0.258,0.188,0.204,-0.126,-0.0055,0.054
-0.0465,0.0525,0.099,-0.0025,-0.073,0.076,0.17,0.2255,0.2175,0.2575,0.1875,0.2035,-0.1215,0.0075,0.0525
-0.0395,0.0645,0.104,-0.0125,-0.072,0.0845,0.166,0.2245,0.2165,0.258,0.1885,0.203,-0.119,0.0155,0.0515
-0.0355,0.075,0.1105,-0.019,-0.0735,0.093,0.162,0.2235,0.2165,0.2575,0.19,0.2035,-0.117,0.024,0.0515
-0.03,0.0835,0.1135,-0.0265,-0.072,0.0985,0.157,0.2225,0.217,0.2575,0.1895,0.2035,-0.115,0.0305,0.0535
-0.029,0.0875,0.1165,-0.029,-0.073,0.102,0.156,0.2215,0.2175,0.2585,0.188,0.2045,-0.1155,0.034,0.052
-0.0345,0.088,0.1225,-0.026,-0.079,0.105,0.1575,0.22,0.216,0.257,0.188,0.203,-0.1205,0.034,0.0515
-0.035,0.092,0.127,-0.028,-0.081,0.1095,0.1575,0.2205,0.216,0.256,0.19,0.203,-0.121,0.0385,0.052
-0.0295,0.0965,0.126,-0.0335,-0.078,0.111,0.1535,0.22,0.2165,0.2565,0.191,0.205,-0.118,0.042,0.0515
-0.026,0.0945,0.12,-0.034,-0.0735,0.107,0.151,0.2195,0.216,0.257,0.189,0.2025,-0.1175,0.037,0.052
-0.025,0.0905,0.1155,-0.0325,-0.0705,0.103,0.1495,0.223,0.2175,0.258,0.19,0.2015,-0.115,0.0325,0.051
-0.028,0.0865,0.1145,-0.029,-0.0715,0.1005,0.1525,0.2265,0.219,0.258,0.1895,0.201,-0.1165,0.03,0.0495
-0.0305,0.0845,0.115,-0.027,-0.073,0.1,0.153,0.2295,0.221,0.259,0.189,0.2025,-0.118,0.0275,0.0485
-0.0345,0.0815,0.116,-0.023,-0.0755,0.0985,0.158,0.232,0.2245,0.261,0.191,0.2045,-0.1195,0.0225,0.047
-0.0345,0.0815,0.116,-0.0235,-0.0755,0.099,0.1605,0.2345,0.227,0.264,0.194,0.207,-0.121,0.0235,0.044
-0.03,0.087,0.117,-0.028,-0.074,0.102,0.157,0.235,0.228,0.2655,0.1965,0.2105,-0.119,0.031,0.045
-0.029,0.0905,0.1195,-0.0305,-0.0745,0.105,0.159,0.2385,0.233,0.2705,0.2005,0.2145,-0.117,0.034,0.043
-0.024,0.094,0.118,-0.035,-0.071,0.106,0.153,0.241,0.234,0.274,0.2025,0.217,-0.118,0.037,0.042
-0.0235,0.0975,0.121,-0.0365,-0.073,0.109,0.1535,0.243,0.2365,0.2765,0.205,0.219,-0.119,0.043,0.042
-0.0305,0.103,0.1335,-0.036,-0.082,0.1185,0.1575,0.247,0.241,0.281,0.2105,0.2235,-0.118,0.051,0.04
-0.027,0.112,0.139,-0.0425,-0.083,0.1255,0.151,0.2455,0.2405,0.2825,0.2115,0.2265,-0.115,0.0595,0.04
-0.0235,0.1195,0.143,-0.048,-0.0835,0.131,0.1465,0.242,0.24,0.2825,0.213,0.2265,-0.1145,0.0655,0.0405
-0.023,0.127,0.15,-0.0515,-0.0865,0.1385,0.141,0.2365,0.238,0.28,0.213,0.226,-0.1155,0.072,0.0425
-0.018,0.1405,0.1585,-0.061,-0.0885,0.1495,0.1335,0.23,0.2335,0.278,0.211,0.226,-0.1155,0.0845,0.043
-0.0125,0.1515,0.164,-0.069,-0.089,0.158,0.125,0.224,0.23,0.277,0.212,0.226,-0.116,0.0935,0.044
-0.012,0.1565,0.1685,-0.072,-0.0905,0.1625,0.1145,0.212,0.225,0.2715,0.21,0.2255,-0.1175,0.098,0.0475
-0.0125,0.161,0.1735,-0.074,-0.0935,0.167,0.102,0.1975,0.216,0.2655,0.209,0.2265,-0.1195,0.103,0.054
-0.0125,0.1625,0.175,-0.0745,-0.094,0.1685,0.091,0.184,0.2085,0.26,0.2065,0.228,-0.1195,0.1055,0.06
-0.0155,0.162,0.1775,-0.0725,-0.097,0.1695,0.0815,0.1665,0.1975,0.252,0.2015,0.2255,-0.1235,0.103,0.065
-0.0145,0.161,0.1755,-0.073,-0.0955,0.1685,0.0705,0.153,0.1865,0.2455,0.198,0.2215,-0.1255,0.103,0.0715
-0.0115,0.1585,0.17,-0.073,-0.091,0.164,0.0615,0.14,0.175,0.237,0.1925,0.2175,-0.1255,0.099,0.08
-0.0165,0.1495,0.166,-0.066,-0.0915,0.158,0.06,0.1335,0.17,0.233,0.1915,0.2165,-0.1265,0.091,0.0835
-0.019,0.1385,0.1575,-0.0595,-0.0885,0.148,0.0615,0.131,0.168,0.2315,0.19,0.216,-0.125,0.0825,0.0865
-0.015,0.131,0.1465,-0.0575,-0.081,0.139,0.063,0.129,0.165,0.228,0.189,0.2165,-0.123,0.073,0.09
-0.0165,0.1265,0.143,-0.0545,-0.08,0.135,0.065,0.1325,0.1655,0.2305,0.191,0.2175,-0.122,0.07,0.088
-0.0175,0.1275,0.145,-0.055,-0.0815,0.1365,0.064,0.133,0.164,0.232,0.1915,0.2185,-0.122,0.074,0.0865
-0.0125,0.1325,0.1455,-0.0595,-0.0795,0.139,0.064,0.135,0.168,0.2345,0.1955,0.22,-0.1215,0.078,0.0865
-0.0105,0.1325,0.143,-0.0605,-0.077,0.138,0.0645,0.139,0.172,0.2375,0.198,0.223,-0.1175,0.0805,0.086
-0.009,0.137,0.146,-0.064,-0.0775,0.1415,0.0665,0.145,0.177,0.2435,0.202,0.2285,-0.1135,0.085,0.0835
-0.0105,0.1435,0.1545,-0.0665,-0.083,0.149,0.073,0.1515,0.185,0.25,0.208,0.234,-0.1135,0.088,0.0805
-0.0115,0.151,0.163,-0.0695,-0.0875,0.157,0.0775,0.1585,0.1915,0.256,0.213,0.2385,-0.1125,0.0965,0.076
-0.0165,0.155,0.1715,-0.069,-0.0945,0.1635,0.0815,0.162,0.1945,0.2575,0.213,0.236,-0.1155,0.1035,0.0715
-0.02,0.154,0.174,-0.067,-0.097,0.164,0.0845,0.16,0.1905,0.2515,0.209,0.233,-0.1175,0.1055,0.0705
-0.014,0.1585,0.1725,-0.072,-0.0935,0.1655,0.0825,0.156,0.185,0.2475,0.204,0.2295,-0.117,0.1085,0.073
-0.0095,0.164,0.1735,-0.077,-0.0915,0.1685,0.078,0.151,0.1805,0.244,0.2005,0.2265,-0.1165,0.1115,0.076
-0.0075,0.165,0.1725,-0.0785,-0.09,0.169,0.0745,0.146,0.175,0.242,0.199,0.227,-0.116,0.113,0.077
-0.0105,0.1595,0.1695,-0.074,-0.0905,0.1645,0.072,0.139,0.169,0.2385,0.194,0.224,-0.117,0.107,0.0815
-0.008,0.162,0.17,-0.077,-0.0895,0.166,0.0705,0.136,0.1665,0.2345,0.1945,0.2245,-0.1155,0.106,0.083
-0.0005,0.1705,0.171,-0.0845,-0.086,0.1705,0.067,0.1315,0.1625,0.2315,0.194,0.2255,-0.114,0.11,0.084
0.004,0.17,0.1655,-0.0865,-0.081,0.1675,0.062,0.1245,0.156,0.2275,0.188,0.223,-0.1125,0.11,0.0905
0.006,0.1675,0.162,-0.0865,-0.0785,0.165,0.058,0.1205,0.1515,0.2235,0.1855,0.222,-0.111,0.106,0.0935
0.0065,0.164,0.158,-0.085,-0.076,0.161,0.056,0.119,0.1485,0.223,0.185,0.2225,-0.1085,0.101,0.096
0.0075,0.159,0.1515,-0.083,-0.072,0.1555,0.056,0.121,0.1495,0.2245,0.1895,0.2255,-0.106,0.096,0.0975
0.0055,0.15,0.144,-0.0775,-0.0695,0.147,0.0565,0.1235,0.151,0.2245,0.1905,0.2265,-0.1035,0.0845,0.101
0.003,0.1385,0.135,-0.0705,-0.0665,0.137,0.0605,0.126,0.152,0.2255,0.19,0.2265,-0.101,0.0745,0.1025
0.006,0.1305,0.1245,-0.068,-0.0595,0.1275,0.06,0.1255,0.149,0.223,0.1905,0.226,-0.099,0.066,0.1045
0.008,0.1255,0.1175,-0.0665,-0.055,0.1215,0.062,0.125,0.1485,0.2235,0.189,0.2245,-0.0975,0.0595,0.1045
0.005,0.1185,0.1135,-0.0615,-0.0545,0.116,0.064,0.125,0.1465,0.2235,0.187,0.224,-0.096,0.0545,0.1065
0.007,0.1125,0.106,-0.0595,-0.0495,0.1095,0.0615,0.126,0.1455,0.223,0.1865,0.225,-0.093,0.0505,0.11
0.0035,0.1085,0.1055,-0.056,-0.051,0.107,0.0665,0.1305,0.1495,0.2245,0.1885,0.2265,-0.093,0.0465,0.1085
-0.001,0.1025,0.103,-0.0505,-0.052,0.1025,0.071,0.129,0.147,0.222,0.1865,0.2245,-0.094,0.0415,0.1085
0.0015,0.0995,0.098,-0.05,-0.0485,0.0985,0.07,0.124,0.1415,0.218,0.182,0.2225,-0.093,0.038,0.111
0.004,0.099,0.095,-0.0515,-0.0455,0.097,0.0675,0.1205,0.1375,0.2155,0.179,0.2205,-0.092,0.0345,0.1125
0.004,0.1015,0.097,-0.0525,-0.0465,0.099,0.0665,0.1155,0.133,0.2105,0.175,0.216,-0.095,0.0375,0.1115
0.0035,0.106,0.1025,-0.0545,-0.0495,0.104,0.067,0.1105,0.1285,0.205,0.1735,0.213,-0.097,0.043,0.1115
0.005,0.1045,0.1,-0.0545,-0.0475,0.102,0.0695,0.11,0.1295,0.206,0.174,0.2125,-0.097,0.0425,0.1105
-0.002,0.0985,0.1005,-0.048,-0.0515,0.0995,0.0755,0.114,0.1305,0.2065,0.1725,0.2115,-0.101,0.0365,0.109
-0.0155,0.091,0.1065,-0.0375,-0.061,0.0985,0.0865,0.1185,0.1315,0.2045,0.17,0.208,-0.1055,0.0315,0.1045
-0.0275,0.079,0.107,-0.0255,-0.0675,0.093,0.0985,0.1255,0.135,0.2055,0.166,0.202,-0.111,0.024,0.0975
-0.041,0.065,0.106,-0.0115,-0.074,0.0855,0.1095,0.132,0.134,0.2025,0.1605,0.1925,-0.1185,0.014,0.0925
-0.055,0.053,0.108,0.0015,-0.082,0.0805,0.12,0.133,0.1325,0.1975,0.154,0.1835,-0.1265,0.0085,0.089
-0.063,0.043,0.106,0.01,-0.085,0.0745,0.1245,0.135,0.1315,0.198,0.153,0.1825,-0.129,-0.0005,0.088
-0.0705,0.0355,0.106,0.018,-0.0885,0.0705,0.1285,0.1345,0.131,0.197,0.152,0.18,-0.1325,-0.0065,0.09
-0.0795,0.0235,0.103,0.0285,-0.0915,0.0635,0.132,0.1345,0.1295,0.1945,0.146,0.176,-0.137,-0.013,0.091
-0.0855,0.012,0.0975,0.0365,-0.0915,0.055,0.134,0.135,0.127,0.1925,0.145,0.175,-0.14,-0.022,0.09
-0.0835,0.009,0.0925,0.0375,-0.0885,0.051,0.1295,0.1295,0.1215,0.1875,0.142,0.1715,-0.1415,-0.027,0.0945
-0.0825,0.0055,0.0875,0.039,-0.085,0.0465,0.1275,0.1225,0.114,0.1805,0.135,0.166,-0.143,-0.0355,0.096
-0.088,-0.0055,0.082,0.047,-0.085,0.038,0.13,0.12,0.111,0.175,0.1305,0.161,-0.146,-0.046,0.0975
-0.0915,-0.015,0.0765,0.0535,-0.0845,0.031,0.1295,0.117,0.107,0.1725,0.1275,0.1565,-0.1495,-0.0505,0.0985
-0.0975,-0.0175,0.08,0.058,-0.089,0.031,0.134,0.118,0.106,0.1725,0.126,0.155,-0.153,-0.052,0.0965
-0.102,-0.0205,0.082,0.0615,-0.092,0.031,0.136,0.12,0.1065,0.169,0.1245,0.1525,-0.1545,-0.055,0.0965
-0.0975,-0.0185,0.079,0.058,-0.0885,0.0305,0.1315,0.1155,0.1015,0.1625,0.1205,0.147,-0.1585,-0.0545,0.097
-0.095,-0.018,0.077,0.057,-0.0865,0.03,0.1315,0.114,0.099,0.1605,0.1165,0.1445,-0.159,-0.054,0.098
-0.0945,-0.0175,0.077,0.0565,-0.0865,0.03,0.134,0.115,0.0995,0.161,0.1145,0.1435,-0.159,-0.0515,0.093
-0.0935,-0.0145,0.079,0.0545,-0.0865,0.0325,0.1315,0.1135,0.098,0.1575,0.112,0.14,-0.16,-0.0515,0.0935
-0.094,-0.017,0.0775,0.056,-0.086,0.0305,0.131,0.1115,0.094,0.156,0.1105,0.1405,-0.158,-0.0545,0.094
-0.097,-0.0185,0.079,0.058,-0.0885,0.0305,0.1335,0.1105,0.094,0.156,0.109,0.14,-0.158,-0.054,0.095
-0.0975,-0.017,0.0805,0.0575,-0.0895,0.0315,0.1335,0.111,0.097,0.155,0.1075,0.1395,-0.158,-0.0565,0.095
-0.0975,-0.0175,0.08,0.058,-0.089,0.031,0.1335,0.1105,0.095,0.154,0.1075,0.1385,-0.1575,-0.0565,0.0935
-0.0945,-0.0205,0.074,0.058,-0.0845,0.0265,0.131,0.108,0.0925,0.152,0.1055,0.135,-0.1575,-0.057,0.095
-0.0925,-0.023,0.0695,0.058,-0.081,0.0235,0.129,0.104,0.09,0.148,0.103,0.132,-0.159,-0.058,0.0965
-0.0945,-0.026,0.069,0.0605,-0.082,0.0215,0.13,0.1045,0.088,0.1465,0.101,0.1315,-0.1605,-0.0615,0.098
-0.0975,-0.032,0.0655,0.065,-0.082,0.0165,0.1315,0.106,0.0875,0.1485,0.1,0.1305,-0.1615,-0.0675,0.0975
-0.1015,-0.041,0.0605,0.0715,-0.0815,0.0095,0.1345,0.107,0.089,0.1495,0.1005,0.131,-0.1625,-0.074,0.1
-0.1035,-0.048,0.056,0.076,-0.08,0.004,0.138,0.107,0.0905,0.15,0.103,0.1335,-0.1615,-0.0815,0.101
-0.106,-0.0495,0.0565,0.078,-0.0815,0.0035,0.1385,0.107,0.09,0.1495,0.102,0.1335,-0.1625,-0.0835,0.102
-0.104,-0.049,0.0545,0.0765,-0.0795,0.003,0.1395,0.1065,0.0895,0.1495,0.101,0.1325,-0.163,-0.0835,0.102
-0.1065,-0.053,0.0535,0.0795,-0.0805,0.0005,0.141,0.106,0.0895,0.1505,0.103,0.134,-0.1615,-0.086,0.1015
-0.1095,-0.0565,0.053,0.083,-0.0815,-0.0015,0.1405,0.107,0.09,0.1505,0.103,0.133,-0.163,-0.0875,0.103
-0.111,-0.0585,0.0525,0.085,-0.082,-0.003,0.1455,0.108,0.091,0.152,0.1025,0.135,-0.163,-0.0915,0.1015
-0.115,-0.0625,0.053,0.089,-0.0845,-0.0045,0.1475,0.11,0.091,0.1535,0.1045,0.137,-0.1605,-0.0955,0.1005
-0.1125,-0.059,0.0535,0.086,-0.083,-0.003,0.1445,0.1095,0.091,0.1525,0.105,0.136,-0.1605,-0.091,0.099
-0.1075,-0.0525,0.055,0.08,-0.081,0.001,0.146,0.1075,0.091,0.1515,0.1025,0.1345,-0.161,-0.0875,0.099
-0.1055,-0.048,0.057,0.077,-0.0815,0.0045,0.144,0.108,0.089,0.15,0.1,0.1325,-0.159,-0.0825,0.0975
-0.1025,-0.044,0.0585,0.0735,-0.081,0.007,0.141,0.1065,0.0875,0.147,0.099,0.13,-0.1595,-0.0775,0.097
-0.0995,-0.043,0.0565,0.0715,-0.0785,0.007,0.1425,0.107,0.0875,0.147,0.0995,0.1295,-0.1595,-0.079,0.098
-0.105,-0.047,0.0575,0.0765,-0.0815,0.005,0.145,0.108,0.088,0.148,0.098,0.131,-0.1585,-0.0845,0.098
-0.1095,-0.048,0.061,0.079,-0.0855,0.0065,0.1475,0.1095,0.0895,0.147,0.0985,0.1305,-0.1605,-0.0865,0.0975
-0.108,-0.0435,0.0645,0.076,-0.0865,0.0105,0.1455,0.1095,0.089,0.1455,0.099,0.1285,-0.16,-0.083,0.097
-0.1005,-0.04,0.0605,0.0705,-0.0805,0.01,0.1415,0.1055,0.087,0.1425,0.0955,0.126,-0.1615,-0.08,0.096
-0.098,-0.039,0.059,0.069,-0.079,0.01,0.14,0.105,0.087,0.141,0.094,0.1245,-0.162,-0.0795,0.096
-0.103,-0.0425,0.0605,0.0735,-0.082,0.009,0.1435,0.1075,0.087,0.1435,0.0945,0.1255,-0.162,-0.0795,0.098
-0.106,-0.047,0.059,0.0765,-0.0825,0.006,0.148,0.1095,0.0875,0.145,0.095,0.126,-0.165,-0.0815,0.0975
-0.1135,-0.0545,0.059,0.084,-0.0865,0.0025,0.149,0.11,0.0885,0.143,0.0955,0.1265,-0.1655,-0.091,0.099
-0.116,-0.0595,0.0575,0.088,-0.087,-0.001,0.152,0.1105,0.09,0.1455,0.097,0.1275,-0.1665,-0.0965,0.0975
-0.1155,-0.0585,0.057,0.0875,-0.0865,-0.001,0.1515,0.1115,0.0895,0.1455,0.0965,0.1275,-0.1665,-0.098,0.097
-0.115,-0.06,0.0555,0.088,-0.0855,-0.002,0.15,0.111,0.089,0.1445,0.0955,0.1265,-0.167,-0.0975,0.097
-0.1145,-0.0625,0.052,0.0885,-0.0835,-0.005,0.152,0.1115,0.09,0.147,0.0975,0.1275,-0.1675,-0.094,0.0975
-0.114,-0.0665,0.048,0.0905,-0.081,-0.009,0.1515,0.1125,0.09,0.146,0.0975,0.1285,-0.167,-0.095,0.0995
-0.1175,-0.069,0.048,0.0935,-0.083,-0.0105,0.1535,0.114,0.09,0.147,0.0975,0.1285,-0.1655,-0.0995,0.098
-0.1225,-0.0695,0.053,0.0965,-0.088,-0.0085,0.1545,0.1145,0.0895,0.1465,0.099,0.1285,-0.1655,-0.0995,0.097
-0.1205,-0.0695,0.0515,0.0955,-0.086,-0.009,0.1525,0.112,0.089,0.1445,0.0985,0.1275,-0.1655,-0.098,0.095
-0.115,-0.0655,0.05,0.0905,-0.0825,-0.008,0.15,0.111,0.087,0.1435,0.097,0.126,-0.164,-0.093,0.0955
-0.111,-0.0595,0.0515,0.0855,-0.0815,-0.004,0.1495,0.1095,0.0875,0.1435,0.0965,0.126,-0.162,-0.0885,0.095
-0.1115,-0.058,0.0535,0.085,-0.0825,-0.002,0.1505,0.1085,0.087,0.1425,0.0955,0.1245,-0.1635,-0.0895,0.0955
-0.108,-0.056,0.052,0.082,-0.0805,-0.0015,0.151,0.1095,0.0865,0.1415,0.097,0.125,-0.163,-0.0895,0.096
-0.1085,-0.056,0.0525,0.0825,-0.0805,-0.002,0.152,0.11,0.088,0.143,0.0975,0.1255,-0.1625,-0.0895,0.0965
-0.109,-0.0535,0.055,0.0815,-0.082,0.0005,0.1525,0.1115,0.089,0.144,0.0955,0.1245,-0.1645,-0.0865,0.095
-0.109,-0.053,0.056,0.0815,-0.0825,0.0015,0.1535,0.1125,0.09,0.144,0.097,0.126,-0.164,-0.0865,0.093
-0.1085,-0.0545,0.054,0.0815,-0.0815,-0.0005,0.1495,0.1095,0.0855,0.1425,0.0935,0.1235,-0.1655,-0.088,0.095
-0.106,-0.0525,0.0535,0.079,-0.0795,0.0005,0.1475,0.1075,0.083,0.139,0.091,0.121,-0.166,-0.088,0.096
-0.1105,-0.055,0.0555,0.0825,-0.0835,0.0005,0.1495,0.1075,0.0835,0.1395,0.0925,0.1225,-0.167,-0.0925,0.0955
-0.113,-0.0595,0.054,0.0865,-0.084,-0.0025,0.152,0.11,0.0845,0.1415,0.0925,0.123,-0.169,-0.097,0.096
-0.118,-0.0665,0.0515,0.0925,-0.085,-0.0075,0.1545,0.1115,0.087,0.141,0.095,0.125,-0.169,-0.102,0.098
-0.1195,-0.072,0.0475,0.096,-0.0835,-0.0125,0.155,0.112,0.087,0.1415,0.0955,0.125,-0.17,-0.104,0.0975
-0.121,-0.073,0.048,0.0975,-0.0845,-0.0125,0.156,0.1135,0.0855,0.1425,0.0965,0.1255,-0.171,-0.103,0.098
-0.12,-0.07,0.05,0.0955,-0.0855,-0.01,0.1545,0.112,0.0845,0.1415,0.095,0.1255,-0.1695,-0.1,0.0985
-0.119,-0.0725,0.0465,0.096,-0.083,-0.013,0.1535,0.1125,0.086,0.142,0.095,0.126,-0.168,-0.0995,0.0975
-0.1205,-0.0765,0.044,0.099,-0.0825,-0.0165,0.153,0.1145,0.0885,0.1435,0.097,0.128,-0.1675,-0.1005,0.0985
-0.123,-0.078,0.045,0.101,-0.0845,-0.0165,0.155,0.1145,0.0895,0.1435,0.097,0.127,-0.169,-0.1035,0.098
-0.1265,-0.078,0.0485,0.1025,-0.0875,-0.015,0.1565,0.114,0.089,0.144,0.097,0.127,-0.169,-0.1065,0.098
-0.121,-0.072,0.049,0.0965,-0.0855,-0.0115,0.154,0.113,0.089,0.1435,0.0965,0.126,-0.169,-0.102,0.096
-0.119,-0.0685,0.05,0.094,-0.085,-0.0095,0.154,0.1115,0.087,0.143,0.0965,0.125,-0.1695,-0.0985,0.0935
-0.118,-0.064,0.0545,0.0915,-0.0865,-0.005,0.153,0.1115,0.0865,0.1415,0.095,0.1235,-0.169,-0.092,0.0935
-0.1145,-0.06,0.055,0.0875,-0.085,-0.002,0.1515,0.111,0.0855,0.14,0.0935,0.1225,-0.168,-0.09,0.095
-0.1125,-0.0595,0.0535,0.0865,-0.083,-0.003,0.149,0.108,0.0835,0.1385,0.0935,0.123,-0.167,-0.091,0.0945
-0.1145,-0.06,0.055,0.0875,-0.085,-0.0025,0.149,0.108,0.083,0.1385,0.093,0.1225,-0.1675,-0.0905,0.0955
-0.1155,-0.058,0.058,0.087,-0.087,0,0.152,0.11,0.084,0.1415,0.094,0.1225,-0.169,-0.092,0.0945
-0.116,-0.056,0.0605,0.086,-0.0885,0.002,0.151,0.108,0.0845,0.1405,0.094,0.1215,-0.17,-0.091,0.0925
-0.1145,-0.056,0.0585,0.0855,-0.0865,0.001,0.1485,0.1055,0.0805,0.138,0.093,0.121,-0.1675,-0.088,0.0945
-0.1115,-0.0555,0.056,0.0835,-0.084,0.0005,0.1455,0.104,0.08,0.137,0.0915,0.1205,-0.168,-0.0865,0.094
-0.117,-0.06,0.057,0.089,-0.087,-0.0015,0.146,0.1035,0.08,0.137,0.0915,0.119,-0.1705,-0.0905,0.0945
-0.119,-0.064,0.055,0.092,-0.0875,-0.0045,0.1485,0.106,0.0795,0.1385,0.0935,0.1205,-0.1715,-0.0935,0.095
-0.1215,-0.0685,0.0525,0.0955,-0.0875,-0.008,0.1525,0.1105,0.086,0.1415,0.096,0.122,-0.172,-0.099,0.095
-0.123,-0.072,0.051,0.098,-0.087,-0.0105,0.1585,0.119,0.0925,0.1465,0.1,0.123,-0.17,-0.0995,0.092
-0.124,-0.0755,0.049,0.1,-0.0865,-0.0135,0.1645,0.126,0.0965,0.151,0.1005,0.1215,-0.171,-0.1015,0.089
-0.1265,-0.08,0.047,0.1035,-0.087,-0.0165,0.1705,0.136,0.105,0.1545,0.1,0.1195,-0.1735,-0.105,0.0855
-0.129,-0.081,0.0475,0.105,-0.0885,-0.017,0.1775,0.1465,0.114,0.16,0.0995,0.1175,-0.176,-0.103,0.081
-0.137,-0.0885,0.0485,0.113,-0.093,-0.02,0.1875,0.161,0.1255,0.1685,0.0995,0.1145,-0.1805,-0.107,0.0725
-0.144,-0.093,0.051,0.119,-0.098,-0.021,0.2035,0.186,0.1475,0.1815,0.105,0.1145,-0.182,-0.111,0.06
-0.1465,-0.093,0.0535,0.12,-0.1,-0.02,0.223,0.215,0.172,0.1975,0.1085,0.1125,-0.1835,-0.1105,0.0455
-0.1495,-0.098,0.0515,0.124,-0.101,-0.0235,0.2415,0.243,0.1915,0.2105,0.11,0.1085,-0.186,-0.1115,0.032
-0.157,-0.104,0.053,0.1305,-0.105,-0.0255,0.262,0.275,0.214,0.2215,0.1075,0.099,-0.1915,-0.1145,0.017
-0.159,-0.103,0.056,0.1315,-0.108,-0.0235,0.2815,0.307,0.2375,0.2335,0.104,0.0905,-0.196,-0.1125,-0.0005
-0.1565,-0.093,0.0635,0.125,-0.11,-0.015,0.2905,0.3265,0.2535,0.243,0.1065,0.089,-0.1965,-0.1015,-0.0125
-0.151,-0.0825,0.0685,0.117,-0.11,-0.007,0.295,0.3435,0.2695,0.256,0.1155,0.092,-0.193,-0.0905,-0.023
-0.154,-0.079,0.075,0.1165,-0.115,-0.002,0.3055,0.3615,0.283,0.2665,0.121,0.0955,-0.19,-0.087,-0.032
-0.159,-0.0775,0.0815,0.1185,-0.1205,0.002,0.324,0.3885,0.2995,0.2755,0.12,0.0925,-0.191,-0.089,-0.0445
-0.1545,-0.07,0.084,0.1125,-0.1195,0.007,0.3365,0.4125,0.313,0.2825,0.1205,0.0915,-0.19,-0.085,-0.0565
-0.149,-0.0555,0.094,0.1025,-0.1215,0.0195,0.332,0.413,0.3135,0.284,0.1225,0.095,-0.185,-0.0725,-0.0595
-0.146,-0.0465,0.1,0.0965,-0.123,0.0265,0.333,0.4225,0.3215,0.2885,0.1245,0.0955,-0.181,-0.067,-0.066
-0.1435,-0.047,0.0965,0.0955,-0.1205,0.025,0.348,0.4585,0.3505,0.3075,0.134,0.098,-0.175,-0.0715,-0.079
-0.13,-0.0405,0.089,0.0855,-0.1095,0.0245,0.352,0.487,0.38,0.3345,0.154,0.1135,-0.156,-0.0695,-0.087
-0.1185,-0.0315,0.087,0.0755,-0.103,0.0275,0.351,0.5025,0.3975,0.357,0.176,0.1335,-0.138,-0.0655,-0.093
-0.1045,-0.024,0.0805,0.064,-0.093,0.0285,0.3445,0.507,0.407,0.3705,0.193,0.152,-0.119,-0.0635,-0.093
-0.086,-0.0005,0.0855,0.0435,-0.086,0.0425,0.3275,0.501,0.4075,0.381,0.212,0.173,-0.099,-0.0485,-0.0885
-0.06,0.0255,0.0855,0.0175,-0.073,0.0555,0.311,0.51,0.428,0.411,0.2465,0.2045,-0.066,-0.0315,-0.093
-0.0175,0.0425,0.06,-0.0125,-0.0385,0.051,0.2885,0.5195,0.4525,0.4425,0.284,0.2395,-0.0255,-0.0285,-0.092
0.0145,0.074,0.0595,-0.044,-0.0225,0.0665,0.2625,0.5195,0.467,0.4675,0.3195,0.277,0.01,-0.014,-0.087
0.055,0.118,0.0635,-0.0865,-0.0045,0.0905,0.228,0.518,0.487,0.505,0.3725,0.3325,0.061,0.0175,-0.082
0.114,0.1735,0.06,-0.1435,0.0265,0.1165,0.173,0.4955,0.4955,0.5415,0.434,0.3985,0.1245,0.0535,-0.07
0.187,0.243,0.056,-0.215,0.065,0.1495,0.096,0.451,0.4905,0.5755,0.5045,0.4755,0.2005,0.0975,-0.0485
0.2645,0.3025,0.037,-0.2835,0.1135,0.17,0.0305,0.4325,0.513,0.6275,0.582,0.5555,0.2805,0.137,-0.0355
0.326,0.3545,0.028,-0.34,0.149,0.1915,-0.0225,0.413,0.5305,0.6725,0.647,0.621,0.343,0.174,-0.0265
0.3725,0.426,0.053,-0.3995,0.16,0.2395,-0.082,0.3545,0.5185,0.6945,0.703,0.684,0.3915,0.2325,-0.0145
0.4125,0.506,0.093,-0.4595,0.16,0.2995,-0.1385,0.278,0.4935,0.7065,0.756,0.7495,0.4335,0.3005,-0.0015
0.458,0.584,0.126,-0.521,0.166,0.355,-0.21,0.184,0.4585,0.72,0.8215,0.829,0.4885,0.365,0.02
0.51,0.6745,0.164,-0.592,0.173,0.419,-0.2895,0.072,0.409,0.7265,0.89,0.9175,0.55,0.439,0.043
0.5555,0.741,0.1845,-0.6485,0.1855,0.463,-0.3545,-0.0445,0.35,0.7255,0.9505,0.992,0.606,0.493,0.0665
0.5985,0.78,0.1805,-0.689,0.209,0.4805,-0.406,-0.123,0.3315,0.755,1.0195,1.065,0.669,0.5235,0.081
0.641,0.819,0.178,-0.73,0.2315,0.4985,-0.4545,-0.2145,0.294,0.7665,1.078,1.134,0.7245,0.5545,0.0975
0.6785,0.8435,0.165,-0.761,0.257,0.504,-0.495,-0.303,0.2675,0.7835,1.1375,1.2,0.7785,0.569,0.1085
0.717,0.8385,0.121,-0.778,0.298,0.4795,-0.5055,-0.323,0.2975,0.841,1.208,1.2635,0.839,0.5565,0.1
0.7575,0.8055,0.0475,-0.7815,0.355,0.4265,-0.523,-0.3635,0.294,0.8725,1.2615,1.3105,0.8915,0.517,0.11
0.79,0.768,-0.022,-0.779,0.406,0.373,-0.546,-0.418,0.27,0.886,1.3005,1.3485,0.934,0.4745,0.128
0.785,0.713,-0.0725,-0.749,0.429,0.32,-0.5285,-0.432,0.253,0.8875,1.3105,1.3545,0.9425,0.4275,0.1375
0.724,0.652,-0.073,-0.688,0.3985,0.2895,-0.4905,-0.461,0.2125,0.8525,1.2795,1.3225,0.9015,0.3945,0.1465
0.6085,0.5995,-0.0095,-0.604,0.309,0.295,-0.4265,-0.4975,0.149,0.7775,1.1985,1.251,0.808,0.384,0.1555
0.484,0.5295,0.045,-0.507,0.2195,0.287,-0.3625,-0.5465,0.0635,0.6735,1.085,1.151,0.689,0.352,0.1725
0.388,0.453,0.065,-0.4205,0.1615,0.259,-0.321,-0.6015,-0.022,0.579,0.9855,1.059,0.5865,0.304,0.189
0.3215,0.354,0.032,-0.338,0.145,0.193,-0.2705,-0.6085,-0.0805,0.5,0.885,0.962,0.4995,0.2255,0.201
0.2635,0.286,0.022,-0.2745,0.1205,0.154,-0.2305,-0.61,-0.1355,0.418,0.7795,0.861,0.4095,0.1785,0.21
0.216,0.2645,0.048,-0.2405,0.084,0.1565,-0.1995,-0.618,-0.1815,0.348,0.693,0.781,0.331,0.173,0.2145
0.167,0.2405,0.073,-0.2035,0.047,0.157,-0.1685,-0.6435,-0.251,0.2515,0.5835,0.6885,0.242,0.164,0.2245
0.0905,0.227,0.137,-0.1585,-0.0235,0.182,-0.137,-0.6965,-0.3495,0.126,0.451,0.578,0.1245,0.1725,0.2355
0.02,0.2075,0.1875,-0.1135,-0.084,0.1975,-0.1145,-0.764,-0.4585,-0.007,0.315,0.468,0.0105,0.17,0.2555
-0.055,0.182,0.237,-0.063,-0.1465,0.2095,-0.0775,-0.815,-0.561,-0.139,0.1805,0.3595,-0.104,0.168,0.274
-0.116,0.153,0.269,-0.0185,-0.193,0.211,-0.0205,-0.8105,-0.6145,-0.231,0.078,0.2745,-0.19,0.157,0.281
-0.1565,0.1145,0.271,0.0215,-0.214,0.193,0.018,-0.799,-0.6585,-0.308,-0.009,0.2,-0.2555,0.1295,0.2945
-0.194,0.0785,0.2725,0.058,-0.2335,0.1755,0.0425,-0.7915,-0.6885,-0.3645,-0.08,0.131,-0.3155,0.104,0.3065
-0.2235,0.0305,0.254,0.097,-0.239,0.1425,0.065,-0.76,-0.6865,-0.39,-0.1345,0.067,-0.3625,0.0655,0.3125
-0.258,-0.0255,0.2325,0.142,-0.2455,0.1035,0.0975,-0.7175,-0.683,-0.412,-0.18,0.0125,-0.403,0.0205,0.32
-0.282,-0.0685,0.2135,0.1755,-0.248,0.0725,0.118,-0.678,-0.6775,-0.4255,-0.2025,-0.013,-0.419,-0.014,0.3275
-0.2955,-0.128,0.1675,0.2115,-0.2315,0.02,0.154,-0.606,-0.6395,-0.4085,-0.2095,-0.0305,-0.419,-0.0665,0.3265
-0.2975,-0.191,0.107,0.2445,-0.2025,-0.042,0.209,-0.502,-0.58,-0.382,-0.216,-0.0485,-0.415,-0.1265,0.314
-0.295,-0.247,0.048,0.2715,-0.1715,-0.0995,0.2565,-0.398,-0.5205,-0.359,-0.2225,-0.068,-0.41,-0.182,0.303
-0.288,-0.284,0.004,0.2865,-0.1465,-0.14,0.28,-0.322,-0.4685,-0.328,-0.2175,-0.0765,-0.399,-0.2185,0.294
-0.279,-0.3055,-0.0265,0.293,-0.127,-0.166,0.285,-0.2715,-0.432,-0.3055,-0.212,-0.0785,-0.3875,-0.2415,0.2855
-0.2815,-0.338,-0.0565,0.31,-0.113,-0.197,0.296,-0.2275,-0.402,-0.2865,-0.211,-0.0865,-0.3825,-0.273,0.2795
-0.285,-0.3545,-0.0695,0.32,-0.108,-0.212,0.291,-0.198,-0.374,-0.267,-0.204,-0.088,-0.379,-0.294,0.2705
-0.2775,-0.3665,-0.0895,0.322,-0.094,-0.228,0.2885,-0.153,-0.3325,-0.235,-0.1895,-0.0835,-0.3665,-0.3135,0.259
-0.258,-0.36,-0.1015,0.3095,-0.0785,-0.2305,0.279,-0.109,-0.284,-0.195,-0.1665,-0.0745,-0.3465,-0.3125,0.242
-0.242,-0.332,-0.09,0.287,-0.0765,-0.211,0.267,-0.077,-0.2375,-0.156,-0.1385,-0.0575,-0.33,-0.293,0.218
-0.229,-0.3065,-0.077,0.268,-0.076,-0.192,0.272,-0.041,-0.1965,-0.1185,-0.1135,-0.0395,-0.314,-0.274,0.195
-0.2185,-0.2825,-0.064,0.2505,-0.0775,-0.173,0.272,-0.0155,-0.163,-0.09,-0.094,-0.0265,-0.3005,-0.256,0.1785
-0.21,-0.261,-0.0515,0.2355,-0.0795,-0.156,0.2795,0.015,-0.125,-0.0575,-0.0695,-0.01,-0.286,-0.2395,0.158
-0.201,-0.243,-0.042,0.2225,-0.08,-0.1425,0.2865,0.045,-0.086,-0.0235,-0.044,0.008,-0.267,-0.227,0.142
-0.1865,-0.228,-0.0415,0.2075,-0.073,-0.135,0.288,0.075,-0.0485,0.008,-0.0215,0.0265,-0.2435,-0.221,0.134
-0.1635,-0.2095,-0.0465,0.1865,-0.0585,-0.128,0.285,0.1065,-0.013,0.039,0.0045,0.047,-0.2155,-0.2135,0.1255
-0.139,-0.187,-0.048,0.1635,-0.046,-0.1175,0.2625,0.1215,0.0145,0.0665,0.027,0.065,-0.193,-0.1995,0.12
-0.122,-0.1635,-0.042,0.143,-0.0405,-0.103,0.246,0.1285,0.035,0.087,0.045,0.0795,-0.18,-0.18,0.115
-0.1125,-0.1485,-0.036,0.1305,-0.0385,-0.0925,0.241,0.1445,0.0565,0.1065,0.0605,0.0925,-0.169,-0.1705,0.1095
-0.107,-0.1375,-0.031,0.1225,-0.038,-0.084,0.2345,0.167,0.0845,0.1295,0.078,0.1075,-0.1555,-0.166,0.1025
-0.101,-0.1265,-0.025,0.114,-0.0385,-0.0755,0.2245,0.1855,0.1055,0.148,0.0935,0.1175,-0.148,-0.159,0.0985
-0.0935,-0.1185,-0.025,0.106,-0.0345,-0.0715,0.2195,0.2015,0.122,0.1615,0.1035,0.126,-0.1435,-0.1525,0.095
-0.09,-0.106,-0.0165,0.098,-0.037,-0.061,0.212,0.2075,0.1345,0.1705,0.1105,0.1345,-0.141,-0.1405,0.092
-0.0815,-0.0885,-0.007,0.0855,-0.0375,-0.048,0.1965,0.206,0.1395,0.178,0.117,0.139,-0.14,-0.1235,0.091
-0.076,-0.0775,-0.0015,0.077,-0.0375,-0.0395,0.1915,0.2105,0.148,0.185,0.121,0.1425,-0.138,-0.1135,0.0875
-0.0785,-0.0715,0.007,0.0755,-0.043,-0.0325,0.1895,0.2095,0.152,0.1875,0.125,0.1455,-0.1385,-0.107,0.0855
-0.086,-0.0665,0.0195,0.076,-0.053,-0.0235,0.1915,0.213,0.161,0.196,0.132,0.153,-0.1395,-0.1,0.0815
-0.092,-0.0615,0.0305,0.077,-0.0615,-0.015,0.194,0.2175,0.169,0.2025,0.1365,0.1585,-0.1385,-0.093,0.079
-0.09,-0.0525,0.0375,0.0715,-0.064,-0.0075,0.19,0.2135,0.168,0.2015,0.137,0.158,-0.1395,-0.0845,0.077
-0.088,-0.0435,0.0445,0.066,-0.0665,0.0005,0.187,0.2115,0.169,0.2035,0.1385,0.1585,-0.1395,-0.079,0.075
-0.0805,-0.035,0.0455,0.058,-0.063,0.0055,0.183,0.211,0.17,0.2045,0.139,0.159,-0.1365,-0.071,0.0735
-0.0735,-0.0275,0.0465,0.051,-0.0605,0.0095,0.181,0.2105,0.1705,0.204,0.137,0.158,-0.136,-0.063,0.0735
-0.0705,-0.0245,0.046,0.0475,-0.0585,0.0105,0.1805,0.212,0.173,0.2065,0.139,0.1595,-0.134,-0.059,0.0715
-0.0725,-0.025,0.0475,0.049,-0.0605,0.0115,0.1795,0.214,0.175,0.208,0.1395,0.16,-0.1335,-0.057,0.073
-0.0765,-0.0235,0.053,0.05,-0.065,0.015,0.1805,0.2165,0.1765,0.2105,0.1415,0.161,-0.133,-0.0565,0.073
-0.0755,-0.0195,0.056,0.0475,-0.066,0.018,0.182,0.2185,0.178,0.211,0.143,0.1605,-0.134,-0.0545,0.068
-0.0735,-0.018,0.0555,0.046,-0.0645,0.0185,0.1805,0.2175,0.176,0.208,0.139,0.157,-0.136,-0.0545,0.069
-0.071,-0.02,0.0515,0.046,-0.0615,0.016,0.1775,0.2145,0.173,0.207,0.1375,0.154,-0.1365,-0.0575,0.07
-0.0735,-0.023,0.051,0.0485,-0.0625,0.014,0.177,0.2155,0.175,0.208,0.138,0.1555,-0.1365,-0.059,0.071
-0.077,-0.0255,0.052,0.0515,-0.065,0.0135,0.178,0.217,0.1795,0.2115,0.1405,0.1575,-0.136,-0.062,0.071
-0.078,-0.029,0.049,0.054,-0.064,0.01,0.178,0.2185,0.182,0.2145,0.142,0.159,-0.136,-0.066,0.071
-0.078,-0.032,0.046,0.055,-0.062,0.007,0.1765,0.219,0.1825,0.2145,0.1425,0.16,-0.1355,-0.0675,0.071
-0.0785,-0.033,0.046,0.056,-0.0625,0.0065,0.177,0.2215,0.184,0.217,0.144,0.1615,-0.135,-0.0675,0.07
-0.076,-0.0305,0.0455,0.0535,-0.061,0.0075,0.176,0.2225,0.185,0.2185,0.1455,0.163,-0.1325,-0.0655,0.071
-0.075,-0.0305,0.045,0.053,-0.0605,0.0075,0.174,0.219,0.184,0.2175,0.1435,0.162,-0.133,-0.0655,0.071
-0.0755,-0.032,0.044,0.054,-0.06,0.006,0.173,0.2205,0.1855,0.22,0.145,0.164,-0.1325,-0.0675,0.0725
-0.0785,-0.031,0.048,0.0555,-0.0635,0.0085,0.1745,0.224,0.19,0.2225,0.149,0.1665,-0.1315,-0.068,0.0725
-0.0795,-0.0315,0.048,0.0555,-0.064,0.0085,0.175,0.2265,0.1915,0.2245,0.151,0.1675,-0.132,-0.0685,0.07
-0.0715,-0.0265,0.045,0.049,-0.0585,0.0095,0.173,0.226,0.192,0.2255,0.1525,0.1685,-0.1285,-0.0645,0.069
-0.067,-0.021,0.046,0.0445,-0.0565,0.0125,0.169,0.226,0.1915,0.2265,0.1515,0.1695,-0.1255,-0.0605,0.07
-0.0605,-0.015,0.0455,0.038,-0.0535,0.0155,0.1655,0.2255,0.1905,0.227,0.152,0.17,-0.1235,-0.0555,0.069
-0.056,-0.005,0.051,0.031,-0.054,0.023,0.1635,0.2235,0.1895,0.226,0.151,0.169,-0.1215,-0.0485,0.0695
-0.055,-0.001,0.0545,0.0285,-0.055,0.0265,0.1615,0.2235,0.19,0.226,0.15,0.1685,-0.122,-0.0455,0.069
-0.0525,-0.001,0.052,0.027,-0.0525,0.0255,0.161,0.225,0.1925,0.228,0.1525,0.172,-0.1195,-0.046,0.0685
-0.052,0.0025,0.055,0.025,-0.054,0.029,0.1615,0.226,0.194,0.232,0.154,0.1735,-0.1185,-0.0425,0.0685
-0.0555,0.005,0.061,0.0255,-0.0585,0.033,0.1635,0.228,0.195,0.2335,0.1555,0.173,-0.1195,-0.041,0.066
-0.056,0.006,0.0625,0.0255,-0.0595,0.034,0.1595,0.2255,0.1945,0.233,0.155,0.1735,-0.1185,-0.0415,0.0675
-0.053,0.007,0.06,0.0235,-0.057,0.0335,0.155,0.222,0.1915,0.2305,0.1535,0.1715,-0.119,-0.044,0.0695
-0.053,0.0065,0.0595,0.0235,-0.0565,0.033,0.1555,0.222,0.192,0.23,0.1545,0.1715,-0.1195,-0.046,0.07
-0.0525,0.0055,0.0585,0.024,-0.056,0.032,0.156,0.224,0.1945,0.235,0.1555,0.175,-0.1185,-0.0455,0.0705
-0.056,0,0.056,0.0285,-0.0565,0.028,0.1585,0.229,0.1965,0.237,0.157,0.1775,-0.1175,-0.049,0.071
-0.057,-0.0045,0.053,0.031,-0.0555,0.0245,0.158,0.23,0.1975,0.2395,0.1595,0.1795,-0.118,-0.053,0.071
-0.0545,-0.005,0.0495,0.0305,-0.0525,0.022,0.1585,0.232,0.2,0.243,0.163,0.181,-0.1165,-0.0515,0.0705
-0.0525,-0.003,0.0495,0.028,-0.0515,0.0235,0.158,0.232,0.2005,0.2425,0.1635,0.181,-0.1165,-0.049,0.071
-0.0485,-0.001,0.047,0.025,-0.048,0.023,0.1545,0.2305,0.2,0.241,0.1615,0.1815,-0.1145,-0.0495,0.0705
-0.048,-0.003,0.045,0.026,-0.047,0.021,0.154,0.231,0.201,0.2415,0.163,0.1815,-0.114,-0.05,0.0715
-0.054,-0.0055,0.0485,0.03,-0.0515,0.0215,0.157,0.233,0.204,0.244,0.164,0.182,-0.116,-0.0545,0.0715
-0.0605,-0.008,0.0525,0.0345,-0.057,0.0225,0.1605,0.237,0.2085,0.2475,0.168,0.1855,-0.115,-0.06,0.0695
-0.0565,-0.003,0.053,0.03,-0.055,0.025,0.156,0.2365,0.2075,0.2475,0.168,0.185,-0.1135,-0.0555,0.069
-0.0505,0.002,0.0525,0.0245,-0.052,0.027,0.153,0.234,0.2055,0.2445,0.1665,0.184,-0.1115,-0.0485,0.069
-0.0485,0.004,0.0525,0.0225,-0.0505,0.0285,0.1515,0.233,0.2065,0.245,0.167,0.1845,-0.1095,-0.0445,0.0695
-0.0425,0.0095,0.052,0.017,-0.0475,0.0305,0.149,0.233,0.208,0.245,0.1655,0.1855,-0.1075,-0.042,0.069
-0.037,0.0135,0.0505,0.012,-0.044,0.032,0.1485,0.2335,0.2075,0.2455,0.1675,0.186,-0.1065,-0.0385,0.068
-0.0385,0.0125,0.0515,0.0135,-0.045,0.032,0.147,0.235,0.2095,0.2475,0.1685,0.1865,-0.106,-0.0385,0.07
-0.042,0.0135,0.0555,0.0145,-0.049,0.0345,0.146,0.2365,0.211,0.248,0.168,0.1875,-0.106,-0.039,0.0685
-0.04,0.017,0.0575,0.0115,-0.049,0.0375,0.1445,0.237,0.2115,0.2475,0.17,0.1875,-0.105,-0.036,0.0675
-0.0335,0.0195,0.0535,0.0075,-0.0435,0.0365,0.144,0.237,0.211,0.2485,0.17,0.1865,-0.1025,-0.034,0.0685
-0.0295,0.0225,0.0515,0.0035,-0.0405,0.037,0.1425,0.2345,0.208,0.248,0.168,0.185,-0.1025,-0.0315,0.0695
-0.031,0.0215,0.0525,0.005,-0.0415,0.037,0.1415,0.2345,0.2095,0.249,0.168,0.186,-0.1045,-0.031,0.071
-0.0305,0.018,0.0485,0.0065,-0.04,0.0335,0.142,0.2385,0.213,0.253,0.171,0.188,-0.103,-0.034,0.0695
-0.0365,0.012,0.0485,0.0125,-0.043,0.0305,0.144,0.24,0.215,0.254,0.1735,0.1885,-0.104,-0.038,0.0705
-0.0405,0.007,0.0475,0.017,-0.0445,0.0275,0.1455,0.241,0.216,0.256,0.175,0.189,-0.1035,-0.0405,0.072
-0.0415,0.0055,0.0465,0.0185,-0.0445,0.026,0.145,0.243,0.218,0.258,0.177,0.191,-0.102,-0.0435,0.0715
-0.037,0.009,0.046,0.0145,-0.042,0.0275,0.144,0.2445,0.221,0.2585,0.177,0.193,-0.101,-0.04,0.0715
-0.0305,0.0125,0.0435,0.0095,-0.037,0.028,0.1425,0.246,0.2205,0.2595,0.1785,0.194,-0.0975,-0.036,0.0715
-0.0325,0.01,0.043,0.0115,-0.038,0.0265,0.141,0.2475,0.2215,0.26,0.1805,0.1955,-0.0985,-0.0385,0.0735
-0.035,0.0095,0.0445,0.013,-0.04,0.027,0.143,0.249,0.2255,0.2625,0.1805,0.1965,-0.1005,-0.04,0.0735
-0.0425,0.007,0.049,0.018,-0.046,0.028,0.1485,0.2545,0.2305,0.266,0.1855,0.1995,-0.0985,-0.044,0.07
-0.0375,0.009,0.0465,0.014,-0.0425,0.028,0.146,0.2555,0.2305,0.268,0.185,0.2,-0.096,-0.041,0.068
-0.0325,0.014,0.047,0.0095,-0.0405,0.0305,0.143,0.253,0.229,0.266,0.1835,0.198,-0.097,-0.036,0.068
-0.0325,0.0165,0.0495,0.0085,-0.0415,0.033,0.1415,0.2525,0.229,0.2645,0.185,0.1965,-0.096,-0.035,0.0665
-0.0275,0.023,0.0505,0.0025,-0.0395,0.0365,0.138,0.252,0.2295,0.265,0.1815,0.1945,-0.0935,-0.03,0.0675
-0.026,0.027,0.053,0,-0.04,0.04,0.1375,0.252,0.231,0.2655,0.1845,0.196,-0.0925,-0.025,0.0675
-0.0245,0.0275,0.0515,-0.001,-0.0385,0.0395,0.1385,0.2535,0.234,0.2675,0.185,0.1965,-0.092,-0.027,0.0665
-0.027,0.0295,0.0565,-0.001,-0.042,0.043,0.139,0.2565,0.2365,0.2705,0.1845,0.196,-0.092,-0.028,0.0675
-0.027,0.0335,0.06,-0.003,-0.044,0.047,0.138,0.259,0.238,0.2715,0.187,0.197,-0.09,-0.023,0.0665
-0.023,0.0345,0.057,-0.0055,-0.0405,0.0455,0.1355,0.259,0.237,0.2705,0.184,0.197,-0.089,-0.021,0.067
-0.0195,0.0345,0.054,-0.0075,-0.037,0.0445,0.132,0.256,0.2345,0.2695,0.182,0.196,-0.0875,-0.021,0.0685
-0.0235,0.0315,0.055,-0.0035,-0.0395,0.0435,0.133,0.2575,0.2375,0.2715,0.184,0.1965,-0.088,-0.0235,0.0685
-0.026,0.027,0.0525,0,-0.0395,0.04,0.1335,0.2595,0.24,0.2735,0.186,0.1975,-0.0885,-0.026,0.0695
-0.0235,0.0235,0.0475,0,-0.0355,0.0355,0.1335,0.2605,0.2425,0.276,0.187,0.198,-0.0885,-0.028,0.07
-0.028,0.0215,0.049,0.0035,-0.0385,0.0355,0.135,0.263,0.2455,0.278,0.1895,0.2005,-0.088,-0.031,0.0695
-0.031,0.0195,0.05,0.006,-0.0405,0.035,0.1365,0.2645,0.248,0.2785,0.1895,0.2025,-0.088,-0.032,0.07
-0.029,0.021,0.05,0.0045,-0.0395,0.0355,0.137,0.267,0.2495,0.281,0.1915,0.202,-0.0875,-0.03,0.0685
-0.0255,0.0215,0.047,0.002,-0.0365,0.0345,0.136,0.269,0.2495,0.282,0.194,0.203,-0.0855,-0.03,0.0675
-0.0255,0.017,0.0425,0.004,-0.034,0.03,0.135,0.27,0.25,0.2835,0.1925,0.2035,-0.0855,-0.032,0.0695
-0.03,0.015,0.045,0.0075,-0.038,0.03,0.136,0.272,0.2515,0.2855,0.1945,0.206,-0.085,-0.0345,0.069
-0.036,0.013,0.049,0.0115,-0.0425,0.031,0.141,0.277,0.256,0.289,0.197,0.2085,-0.086,-0.037,0.0665
-0.032,0.0145,0.047,0.009,-0.04,0.031,0.1385,0.2795,0.259,0.2925,0.199,0.2085,-0.0845,-0.0355,0.065
-0.0275,0.0205,0.048,0.0035,-0.038,0.034,0.135,0.2785,0.2585,0.291,0.1995,0.208,-0.0825,-0.0295,0.0635
-0.0245,0.028,0.052,-0.0015,-0.0385,0.04,0.1335,0.2775,0.2605,0.291,0.199,0.207,-0.082,-0.025,0.0625
-0.0215,0.032,0.053,-0.0045,-0.0375,0.0425,0.1305,0.2775,0.261,0.292,0.1965,0.206,-0.081,-0.022,0.064
-0.02,0.034,0.054,-0.0065,-0.037,0.044,0.13,0.278,0.2605,0.2935,0.196,0.2065,-0.08,-0.018,0.0635
-0.019,0.0345,0.054,-0.0075,-0.037,0.0445,0.1305,0.2805,0.263,0.296,0.1985,0.2075,-0.0785,-0.014,0.0625
-0.021,0.0335,0.054,-0.006,-0.038,0.0435,0.1305,0.284,0.2665,0.297,0.1995,0.208,-0.079,-0.0135,0.0625
-0.0165,0.0375,0.054,-0.01,-0.0355,0.0455,0.13,0.286,0.2685,0.3,0.2005,0.2085,-0.0785,-0.014,0.06
-0.012,0.04,0.052,-0.014,-0.032,0.046,0.126,0.285,0.267,0.2995,0.199,0.208,-0.076,-0.013,0.0625
-0.008,0.0405,0.049,-0.016,-0.0285,0.0445,0.123,0.284,0.266,0.298,0.1985,0.2055,-0.0755,-0.014,0.064
-0.0075,0.04,0.048,-0.016,-0.028,0.044,0.124,0.287,0.2675,0.2995,0.2,0.207,-0.0765,-0.016,0.0635
-0.01,0.037,0.047,-0.0135,-0.029,0.042,0.1235,0.2915,0.2705,0.3015,0.201,0.209,-0.0765,-0.0165,0.064
-0.0115,0.0315,0.0435,-0.0095,-0.0275,0.0375,0.1265,0.295,0.2725,0.3045,0.204,0.211,-0.077,-0.0195,0.0645
-0.0165,0.026,0.043,-0.0045,-0.03,0.0345,0.1295,0.2975,0.275,0.3075,0.207,0.2125,-0.077,-0.0255,0.064
-0.0185,0.023,0.0415,-0.002,-0.03,0.0325,0.13,0.3,0.2795,0.309,0.2085,0.2135,-0.077,-0.03,0.064
-0.0145,0.0255,0.04,-0.005,-0.0275,0.033,0.1295,0.3,0.2795,0.3095,0.2085,0.2145,-0.075,-0.0265,0.064
-0.0105,0.027,0.0375,-0.008,-0.024,0.032,0.1265,0.302,0.28,0.3105,0.21,0.215,-0.0735,-0.024,0.064
-0.0095,0.0235,0.033,-0.0065,-0.0215,0.0285,0.1235,0.3025,0.281,0.3115,0.21,0.2155,-0.073,-0.028,0.0665
-0.0115,0.0215,0.033,-0.0045,-0.0225,0.0275,0.1245,0.3045,0.2845,0.3125,0.2105,0.2155,-0.0725,-0.032,0.0655
-0.0175,0.02,0.0375,-0.001,-0.028,0.029,0.1285,0.3095,0.2885,0.316,0.2145,0.217,-0.0725,-0.0335,0.0625
-0.017,0.02,0.0375,-0.0015,-0.0275,0.0285,0.1295,0.3125,0.2905,0.318,0.2155,0.2185,-0.073,-0.033,0.0615
-0.007,0.0265,0.033,-0.0095,-0.02,0.0295,0.126,0.3125,0.291,0.316,0.216,0.218,-0.0705,-0.0265,0.0615
-0.001,0.034,0.035,-0.016,-0.0185,0.0345,0.1215,0.3115,0.289,0.3155,0.2165,0.217,-0.068,-0.0195,0.0595
0.0035,0.04,0.0365,-0.0215,-0.017,0.0385,0.1205,0.311,0.2905,0.316,0.2145,0.216,-0.0685,-0.0175,0.0595
0.008,0.0435,0.0355,-0.0255,-0.014,0.0395,0.1195,0.3135,0.293,0.3175,0.2155,0.216,-0.066,-0.015,0.0605
0.006,0.041,0.0345,-0.0235,-0.0145,0.038,0.121,0.3175,0.294,0.3185,0.218,0.218,-0.0655,-0.017,0.0605
0.004,0.0395,0.0355,-0.0215,-0.016,0.0375,0.122,0.3195,0.295,0.3205,0.2185,0.2185,-0.066,-0.018,0.061
0.0035,0.0425,0.039,-0.023,-0.018,0.041,0.1215,0.3215,0.2975,0.3215,0.2205,0.2195,-0.064,-0.015,0.061
0.0065,0.044,0.0375,-0.025,-0.0155,0.041,0.1195,0.3195,0.296,0.32,0.2195,0.2195,-0.0635,-0.0145,0.061
0.012,0.044,0.032,-0.028,-0.01,0.038,0.116,0.3195,0.2955,0.318,0.2185,0.218,-0.0625,-0.015,0.0625
0.0105,0.0425,0.0325,-0.026,-0.011,0.0375,0.119,0.323,0.2975,0.3195,0.22,0.22,-0.061,-0.018,0.065
0.0055,0.037,0.0315,-0.021,-0.0135,0.0345,0.122,0.326,0.299,0.3215,0.2215,0.221,-0.061,-0.0215,0.0655
0.003,0.0315,0.028,-0.017,-0.0125,0.0295,0.1215,0.3295,0.302,0.3235,0.223,0.2225,-0.063,-0.025,0.067
0.0045,0.0285,0.024,-0.016,-0.01,0.026,0.1225,0.3305,0.3045,0.325,0.224,0.224,-0.061,-0.027,0.067
0.004,0.027,0.0225,-0.015,-0.0095,0.0245,0.122,0.332,0.3055,0.323,0.224,0.2235,-0.06,-0.0285,0.068
0.004,0.0255,0.0215,-0.0145,-0.009,0.0235,0.123,0.3335,0.306,0.323,0.225,0.224,-0.0605,-0.028,0.069
0.008,0.0235,0.016,-0.0155,-0.0045,0.0195,0.1215,0.3345,0.306,0.323,0.2245,0.2235,-0.059,-0.0295,0.068
0.006,0.0205,0.0145,-0.013,-0.0045,0.0175,0.12,0.335,0.3045,0.3235,0.223,0.224,-0.059,-0.031,0.069
0.0045,0.0205,0.016,-0.012,-0.006,0.018,0.123,0.339,0.307,0.325,0.225,0.2265,-0.06,-0.032,0.0705
0.002,0.02,0.018,-0.0105,-0.0085,0.019,0.124,0.3445,0.31,0.327,0.2275,0.2295,-0.058,-0.0335,0.07
0.0015,0.02,0.0185,-0.0105,-0.0085,0.019,0.1225,0.344,0.3095,0.325,0.2265,0.229,-0.057,-0.0325,0.0695
0.0065,0.0225,0.016,-0.014,-0.005,0.019,0.119,0.342,0.31,0.322,0.2245,0.227,-0.0575,-0.0325,0.0695
0.0125,0.029,0.016,-0.0205,-0.002,0.0225,0.116,0.3425,0.3095,0.322,0.2235,0.2265,-0.0555,-0.026,0.0695
0.018,0.036,0.018,-0.0265,0,0.027,0.1135,0.344,0.3085,0.3215,0.2195,0.2265,-0.055,-0.0215,0.0715
0.021,0.038,0.017,-0.029,0.0015,0.0275,0.11,0.342,0.3075,0.3195,0.22,0.227,-0.0545,-0.024,0.071
0.023,0.0395,0.0165,-0.031,0.0025,0.028,0.1085,0.3425,0.306,0.317,0.2205,0.225,-0.0545,-0.022,0.0715
0.0215,0.04,0.0185,-0.0305,0.001,0.0295,0.1105,0.344,0.307,0.3165,0.219,0.2255,-0.0545,-0.021,0.0735
0.0205,0.0425,0.022,-0.031,-0.001,0.0325,0.112,0.344,0.306,0.3155,0.2175,0.225,-0.0555,-0.0195,0.0735
0.023,0.043,0.0205,-0.033,0.001,0.032,0.109,0.3445,0.303,0.314,0.216,0.225,-0.055,-0.018,0.076
0.0285,0.0435,0.015,-0.0355,0.0065,0.0295,0.1045,0.3405,0.301,0.31,0.2145,0.2235,-0.053,-0.018,0.078
0.0285,0.0445,0.016,-0.036,0.006,0.0305,0.103,0.341,0.2995,0.309,0.213,0.2215,-0.0545,-0.017,0.0795
0.029,0.0425,0.0135,-0.0355,0.0075,0.028,0.104,0.3445,0.301,0.3095,0.2135,0.225,-0.0535,-0.0205,0.0805
0.027,0.037,0.0105,-0.032,0.008,0.0235,0.105,0.3445,0.303,0.31,0.214,0.2245,-0.0555,-0.028,0.0815
0.022,0.0315,0.01,-0.0265,0.0055,0.0205,0.108,0.349,0.304,0.3115,0.214,0.2255,-0.0575,-0.031,0.0825
0.023,0.0305,0.0075,-0.0265,0.0075,0.019,0.1085,0.3515,0.305,0.308,0.214,0.2255,-0.057,-0.0345,0.0845
0.025,0.034,0.009,-0.0295,0.008,0.0215,0.1065,0.35,0.3045,0.308,0.2135,0.2245,-0.058,-0.0325,0.0845
0.0265,0.0345,0.008,-0.03,0.009,0.021,0.1055,0.3515,0.3025,0.3095,0.214,0.226,-0.0565,-0.0315,0.0845
0.0275,0.0315,0.004,-0.0295,0.0115,0.0175,0.105,0.3515,0.3035,0.306,0.2145,0.2255,-0.058,-0.0335,0.0875
0.027,0.032,0.0055,-0.029,0.0105,0.0185,0.108,0.3535,0.306,0.3065,0.214,0.2265,-0.059,-0.033,0.086
0.0245,0.032,0.007,-0.028,0.0085,0.0195,0.11,0.359,0.3055,0.3075,0.2145,0.227,-0.0585,-0.0325,0.086
0.022,0.031,0.009,-0.026,0.0065,0.0195,0.11,0.3585,0.304,0.307,0.2135,0.2285,-0.0595,-0.031,0.0855
0.024,0.034,0.01,-0.029,0.007,0.0215,0.106,0.357,0.3,0.304,0.211,0.227,-0.059,-0.029,0.0845
0.0325,0.042,0.0095,-0.037,0.011,0.026,0.102,0.3555,0.297,0.301,0.2095,0.226,-0.056,-0.0235,0.0855
0.0345,0.048,0.0135,-0.041,0.0105,0.031,0.0995,0.3545,0.295,0.2995,0.2075,0.225,-0.0545,-0.018,0.0865
0.036,0.0515,0.0155,-0.0435,0.01,0.0335,0.0965,0.3525,0.291,0.295,0.2055,0.222,-0.0545,-0.0165,0.087
0.0345,0.05,0.0155,-0.042,0.0095,0.033,0.098,0.353,0.291,0.2945,0.2055,0.223,-0.0545,-0.0165,0.087
0.034,0.0515,0.0175,-0.0425,0.008,0.0345,0.0975,0.3535,0.2895,0.293,0.203,0.2215,-0.056,-0.016,0.0875
0.0345,0.0545,0.02,-0.0445,0.007,0.037,0.096,0.352,0.288,0.289,0.2015,0.2225,-0.055,-0.0145,0.088
0.0365,0.0555,0.0185,-0.0455,0.0085,0.037,0.0955,0.351,0.2865,0.288,0.2035,0.2215,-0.0555,-0.0115,0.0885
0.0435,0.0585,0.015,-0.0505,0.014,0.0365,0.092,0.348,0.2835,0.285,0.201,0.2185,-0.0555,-0.011,0.0905
0.0425,0.058,0.0155,-0.05,0.013,0.0365,0.0925,0.348,0.281,0.2825,0.1995,0.2195,-0.0555,-0.012,0.093
0.04,0.056,0.0155,-0.0475,0.012,0.0355,0.0925,0.35,0.281,0.284,0.1985,0.221,-0.056,-0.014,0.095
0.0355,0.0495,0.014,-0.0425,0.0105,0.032,0.094,0.351,0.283,0.283,0.199,0.2225,-0.057,-0.0185,0.096
0.035,0.046,0.011,-0.0405,0.012,0.0285,0.095,0.3515,0.2825,0.283,0.2015,0.2255,-0.0555,-0.0205,0.098
0.0375,0.047,0.0095,-0.042,0.014,0.028,0.0935,0.3505,0.2805,0.2835,0.2015,0.2265,-0.0555,-0.0195,0.098
0.0385,0.0495,0.011,-0.044,0.0135,0.03,0.0945,0.352,0.2795,0.2815,0.201,0.226,-0.056,-0.015,0.097
0.0435,0.052,0.0085,-0.048,0.0175,0.03,0.094,0.353,0.2785,0.2805,0.202,0.229,-0.053,-0.013,0.0975
0.0455,0.051,0.0055,-0.048,0.02,0.028,0.093,0.3525,0.277,0.281,0.2025,0.2315,-0.0535,-0.016,0.0985
0.043,0.051,0.008,-0.047,0.017,0.0295,0.095,0.354,0.278,0.2825,0.204,0.233,-0.0535,-0.018,0.098
0.0375,0.052,0.0145,-0.0445,0.0115,0.033,0.099,0.355,0.279,0.284,0.2065,0.2345,-0.054,-0.0185,0.096
0.0395,0.0545,0.015,-0.047,0.012,0.035,0.0975,0.3555,0.278,0.2825,0.206,0.234,-0.054,-0.016,0.096
0.043,0.0625,0.02,-0.0525,0.0115,0.0415,0.0925,0.3535,0.2745,0.278,0.204,0.233,-0.053,-0.009,0.0955
0.049,0.074,0.025,-0.061,0.012,0.0495,0.09,0.3515,0.272,0.2775,0.2035,0.233,-0.0515,-0.002,0.095
0.055,0.0825,0.0275,-0.0685,0.0135,0.055,0.087,0.3485,0.269,0.274,0.202,0.232,-0.0505,0.0045,0.095
0.0565,0.0845,0.028,-0.0705,0.014,0.056,0.0855,0.3465,0.2685,0.2735,0.2025,0.233,-0.0515,0.009,0.0935
0.059,0.098,0.039,-0.078,0.0095,0.0685,0.0815,0.343,0.266,0.2725,0.2005,0.2315,-0.05,0.016,0.093
0.057,0.1065,0.0495,-0.0815,0.0035,0.078,0.081,0.3415,0.2645,0.27,0.201,0.232,-0.049,0.024,0.093
0.0585,0.0865,0.0285,-0.072,0.015,0.0575,0.091,0.352,0.2765,0.281,0.2125,0.2435,-0.0485,0.0125,0.0905
0.0605,0.08,0.0195,-0.0705,0.0205,0.0495,0.093,0.3535,0.2785,0.284,0.2165,0.248,-0.047,0.0105,0.0895
0.0615,0.094,0.0325,-0.0775,0.0145,0.063,0.0865,0.345,0.271,0.2775,0.2135,0.243,-0.047,0.024,0.0895
0.06,0.0995,0.0395,-0.0795,0.01,0.0695,0.0865,0.3435,0.2695,0.277,0.2125,0.2425,-0.0485,0.026,0.088
0.0575,0.0985,0.041,-0.0775,0.008,0.0695,0.088,0.344,0.2695,0.28,0.214,0.2455,-0.0475,0.024,0.0875
0.056,0.096,0.04,-0.076,0.0075,0.068,0.0905,0.3425,0.2715,0.2815,0.2185,0.248,-0.047,0.023,0.087
0.0545,0.0965,0.042,-0.0755,0.006,0.069,0.0935,0.344,0.2735,0.282,0.221,0.251,-0.0485,0.0235,0.0855
0.052,0.0955,0.0435,-0.073,0.004,0.0695,0.0955,0.344,0.2755,0.2845,0.2235,0.2535,-0.049,0.0255,0.084
0.0515,0.0975,0.046,-0.0745,0.0025,0.072,0.096,0.34,0.275,0.2835,0.2235,0.2525,-0.049,0.027,0.082
0.0525,0.1,0.048,-0.076,0.002,0.074,0.0965,0.339,0.275,0.2825,0.2235,0.253,-0.049,0.0295,0.079
0.047,0.0965,0.05,-0.0715,-0.0015,0.073,0.099,0.338,0.273,0.282,0.223,0.2545,-0.0495,0.0295,0.078
0.0395,0.096,0.056,-0.0675,-0.0085,0.076,0.1025,0.3365,0.2715,0.282,0.2235,0.2555,-0.0495,0.0305,0.0765
0.036,0.0965,0.0605,-0.066,-0.0125,0.0785,0.108,0.3375,0.275,0.2855,0.2265,0.258,-0.0495,0.033,0.073
0.0335,0.099,0.066,-0.066,-0.0165,0.0825,0.113,0.337,0.2745,0.2855,0.2285,0.258,-0.05,0.034,0.07
0.03,0.101,0.071,-0.0655,-0.021,0.0865,0.1135,0.333,0.2715,0.2835,0.2285,0.257,-0.0535,0.0355,0.068
0.0345,0.107,0.0725,-0.0705,-0.019,0.09,0.1125,0.329,0.269,0.282,0.2255,0.255,-0.052,0.0415,0.067
0.035,0.112,0.077,-0.073,-0.0215,0.0945,0.1135,0.326,0.266,0.278,0.2235,0.253,-0.053,0.0445,0.067
0.035,0.113,0.078,-0.0735,-0.022,0.0955,0.1145,0.322,0.264,0.277,0.223,0.2515,-0.0545,0.046,0.0645
0.0315,0.1115,0.08,-0.071,-0.0245,0.0955,0.119,0.32,0.2625,0.277,0.222,0.2495,-0.056,0.047,0.0635
0.0225,0.1085,0.086,-0.065,-0.032,0.0975,0.1215,0.3175,0.26,0.274,0.221,0.247,-0.061,0.044,0.0625
0.0205,0.1095,0.0895,-0.065,-0.0345,0.0995,0.124,0.3135,0.2575,0.2725,0.218,0.2455,-0.062,0.045,0.06
0.019,0.1085,0.089,-0.0635,-0.035,0.0985,0.123,0.309,0.254,0.2695,0.214,0.242,-0.0655,0.0455,0.0625
0.019,0.1055,0.086,-0.062,-0.0335,0.0955,0.123,0.3025,0.249,0.264,0.2115,0.2385,-0.068,0.045,0.062
0.014,0.1015,0.087,-0.0575,-0.037,0.094,0.1255,0.2995,0.246,0.263,0.2105,0.236,-0.0705,0.0435,0.06
0.0065,0.095,0.0885,-0.0505,-0.041,0.0915,0.127,0.2965,0.2425,0.2625,0.209,0.2335,-0.074,0.0365,0.0615
0,0.088,0.088,-0.0435,-0.044,0.088,0.1315,0.294,0.241,0.2605,0.2075,0.232,-0.0775,0.0325,0.062
-0.0065,0.081,0.0875,-0.037,-0.0475,0.0845,0.1365,0.291,0.239,0.2595,0.208,0.232,-0.081,0.0285,0.0625
-0.0105,0.073,0.0835,-0.031,-0.0475,0.0785,0.14,0.288,0.237,0.259,0.206,0.2315,-0.0825,0.0215,0.063
-0.012,0.0735,0.0855,-0.0305,-0.049,0.0795,0.139,0.2835,0.2335,0.256,0.2015,0.2275,-0.0855,0.023,0.063
-0.0135,0.072,0.086,-0.029,-0.05,0.079,0.139,0.277,0.229,0.252,0.199,0.2245,-0.0875,0.023,0.0625
-0.0195,0.064,0.084,-0.022,-0.052,0.074,0.14,0.271,0.225,0.2485,0.1955,0.221,-0.0915,0.0175,0.064
-0.0265,0.06,0.086,-0.0165,-0.0565,0.073,0.143,0.266,0.222,0.2475,0.1935,0.219,-0.094,0.015,0.064
-0.0335,0.0545,0.0875,-0.01,-0.061,0.071,0.1475,0.2625,0.221,0.2445,0.1915,0.2185,-0.097,0.009,0.063
-0.0365,0.054,0.0905,-0.0085,-0.0635,0.072,0.1485,0.2565,0.215,0.2405,0.1875,0.2145,-0.1005,0.01,0.0625
-0.0365,0.0545,0.091,-0.009,-0.064,0.0725,0.1485,0.252,0.21,0.2385,0.184,0.2115,-0.102,0.011,0.0635
-0.033,0.058,0.0915,-0.012,-0.0625,0.075,0.146,0.2455,0.2055,0.2335,0.1815,0.209,-0.1045,0.0145,0.0625
-0.0325,0.0615,0.094,-0.014,-0.0635,0.0775,0.1445,0.2385,0.199,0.229,0.178,0.206,-0.106,0.0195,0.064
-0.0335,0.0615,0.095,-0.0135,-0.0645,0.0785,0.145,0.2325,0.1945,0.224,0.1725,0.2025,-0.1075,0.0205,0.065
-0.036,0.059,0.095,-0.011,-0.066,0.077,0.1445,0.2275,0.1895,0.22,0.1695,0.199,-0.111,0.019,0.065
-0.044,0.054,0.0985,-0.005,-0.0715,0.076,0.147,0.225,0.185,0.2165,0.1675,0.1955,-0.1155,0.0135,0.0675
-0.05,0.055,0.105,-0.002,-0.078,0.08,0.1475,0.2195,0.179,0.213,0.165,0.1925,-0.1185,0.012,0.0665
-0.0505,0.0545,0.1045,-0.0015,-0.0775,0.0795,0.1455,0.2135,0.175,0.209,0.163,0.189,-0.122,0.0125,0.067
-0.045,0.055,0.1005,-0.0045,-0.073,0.0775,0.1425,0.207,0.1695,0.203,0.158,0.1845,-0.125,0.0135,0.068
-0.0485,0.05,0.099,-0.0005,-0.074,0.0745,0.1425,0.203,0.165,0.1985,0.154,0.181,-0.1285,0.0065,0.0705
-0.054,0.043,0.097,0.0055,-0.0755,0.07,0.1435,0.1995,0.1635,0.1965,0.1525,0.181,-0.1315,0.001,0.073
-0.0565,0.038,0.095,0.0095,-0.076,0.0665,0.142,0.195,0.162,0.1965,0.152,0.181,-0.1325,-0.0025,0.076
-0.0605,0.0315,0.092,0.0145,-0.0765,0.0615,0.145,0.193,0.16,0.195,0.152,0.1805,-0.1345,-0.0075,0.076
-0.0645,0.0265,0.091,0.0195,-0.078,0.0585,0.149,0.191,0.157,0.1925,0.1495,0.179,-0.1385,-0.0095,0.075
-0.0675,0.0235,0.0915,0.0225,-0.08,0.0575,0.149,0.1875,0.154,0.189,0.1465,0.1755,-0.1415,-0.0095,0.076
-0.0675,0.022,0.09,0.023,-0.079,0.056,0.148,0.182,0.1505,0.1865,0.144,0.172,-0.143,-0.0115,0.076
-0.072,0.0155,0.0875,0.0285,-0.08,0.0515,0.148,0.178,0.147,0.1845,0.1415,0.171,-0.146,-0.0195,0.0785
-0.0785,0.0115,0.09,0.0335,-0.0845,0.051,0.1485,0.176,0.1445,0.183,0.139,0.1675,-0.1495,-0.0215,0.0785
-0.084,0.007,0.091,0.0385,-0.088,0.0495,0.1515,0.174,0.143,0.183,0.1395,0.168,-0.1515,-0.026,0.0785
-0.0825,0.0075,0.09,0.0375,-0.0865,0.049,0.151,0.1715,0.14,0.18,0.1395,0.1685,-0.151,-0.027,0.079
-0.083,0.0095,0.0925,0.037,-0.0885,0.051,0.15,0.169,0.138,0.1785,0.1375,0.1655,-0.152,-0.025,0.078
-0.081,0.01,0.091,0.036,-0.0865,0.0505,0.15,0.165,0.135,0.176,0.1345,0.1635,-0.152,-0.0235,0.079
-0.0775,0.015,0.0925,0.0315,-0.0855,0.054,0.147,0.16,0.1295,0.171,0.129,0.159,-0.155,-0.0195,0.0795
-0.0765,0.017,0.093,0.03,-0.085,0.055,0.146,0.1555,0.128,0.168,0.127,0.158,-0.1555,-0.0185,0.0795
-0.075,0.016,0.091,0.03,-0.0835,0.0535,0.144,0.153,0.1255,0.167,0.1265,0.1575,-0.1555,-0.0185,0.08
-0.0805,0.016,0.0965,0.0325,-0.089,0.056,0.1445,0.152,0.1225,0.1665,0.1255,0.1555,-0.159,-0.0215,0.08
-0.0835,0.0175,0.101,0.033,-0.0925,0.0595,0.147,0.151,0.1225,0.1655,0.1245,0.155,-0.159,-0.021,0.0805
-0.08,0.02,0.1,0.03,-0.0905,0.06,0.1465,0.147,0.119,0.164,0.1215,0.153,-0.161,-0.0195,0.0805
-0.0725,0.023,0.095,0.025,-0.084,0.059,0.141,0.143,0.1155,0.1605,0.118,0.149,-0.1625,-0.0175,0.082
-0.0745,0.019,0.094,0.028,-0.0845,0.0565,0.141,0.143,0.1125,0.1595,0.1165,0.148,-0.1645,-0.0215,0.084
-0.0785,0.0135,0.0925,0.0325,-0.086,0.0535,0.143,0.1415,0.1105,0.158,0.1175,0.1475,-0.166,-0.027,0.084
-0.083,0.006,0.089,0.0385,-0.086,0.0475,0.1425,0.141,0.1105,0.156,0.1175,0.1455,-0.1675,-0.0325,0.086
-0.088,-0.0015,0.0865,0.045,-0.0875,0.0425,0.145,0.1415,0.1105,0.158,0.1165,0.148,-0.1675,-0.038,0.0865
-0.089,-0.0035,0.085,0.0465,-0.087,0.0405,0.146,0.1405,0.109,0.1585,0.1175,0.148,-0.1665,-0.04,0.086
-0.088,-0.003,0.0845,0.0455,-0.0865,0.041,0.145,0.1395,0.1065,0.157,0.117,0.1475,-0.167,-0.04,0.089
-0.086,-0.0015,0.0845,0.044,-0.0855,0.0415,0.144,0.1375,0.1055,0.1565,0.116,0.148,-0.168,-0.038,0.09
-0.086,-0.0045,0.081,0.0455,-0.0835,0.038,0.1425,0.135,0.1035,0.157,0.117,0.147,-0.167,-0.0395,0.091
-0.086,-0.0065,0.0795,0.0465,-0.083,0.0365,0.146,0.136,0.104,0.158,0.1175,0.148,-0.164,-0.0405,0.09
-0.0905,-0.0085,0.0815,0.0495,-0.086,0.0365,0.1495,0.1375,0.1055,0.1585,0.118,0.149,-0.1645,-0.044,0.089
-0.092,-0.01,0.082,0.051,-0.0875,0.036,0.1485,0.1345,0.102,0.156,0.1155,0.1475,-0.165,-0.0435,0.089
-0.0945,-0.0065,0.088,0.051,-0.092,0.0405,0.149,0.133,0.101,0.1565,0.116,0.148,-0.1645,-0.0415,0.089
-0.0925,-0.004,0.0885,0.0485,-0.0905,0.042,0.1475,0.1315,0.0995,0.156,0.116,0.146,-0.164,-0.0395,0.087
-0.086,0,0.0855,0.0435,-0.086,0.0425,0.144,0.1295,0.0965,0.1515,0.1145,0.143,-0.164,-0.035,0.0865
-0.084,0.0035,0.0875,0.0405,-0.086,0.0455,0.1425,0.128,0.0965,0.1505,0.1135,0.1435,-0.1645,-0.0305,0.0875
-0.086,0.0015,0.0875,0.0425,-0.087,0.0445,0.144,0.128,0.0955,0.1505,0.1115,0.142,-0.1645,-0.031,0.0885
-0.0915,0.0005,0.092,0.0455,-0.092,0.0465,0.1435,0.127,0.093,0.148,0.1095,0.14,-0.1675,-0.0345,0.0885
-0.09,0.004,0.094,0.043,-0.092,0.049,0.1445,0.1265,0.095,0.149,0.111,0.141,-0.1685,-0.0325,0.086
-0.087,0.0075,0.094,0.04,-0.0905,0.0505,0.1435,0.1265,0.094,0.1485,0.11,0.139,-0.1695,-0.0285,0.087
-0.083,0.0095,0.092,0.037,-0.088,0.051,0.1375,0.123,0.09,0.144,0.106,0.136,-0.171,-0.028,0.0885
-0.082,0.007,0.089,0.0375,-0.086,0.048,0.137,0.122,0.0915,0.145,0.108,0.1375,-0.1705,-0.029,0.0895
-0.0865,0.003,0.0895,0.042,-0.088,0.0465,0.14,0.124,0.093,0.1455,0.1095,0.138,-0.174,-0.0315,0.089
-0.09,-0.002,0.088,0.046,-0.0895,0.043,0.1425,0.1245,0.093,0.1465,0.1105,0.1385,-0.175,-0.0365,0.09
-0.0935,-0.0065,0.0875,0.0505,-0.091,0.0405,0.144,0.1255,0.0955,0.1495,0.1115,0.1395,-0.175,-0.0405,0.0905
-0.0935,-0.007,0.0865,0.0505,-0.0905,0.0395,0.1475,0.1275,0.0985,0.1495,0.114,0.141,-0.174,-0.0435,0.092
-0.0895,-0.0035,0.086,0.0465,-0.088,0.041,0.147,0.1265,0.0975,0.1485,0.1125,0.1415,-0.1735,-0.0415,0.0945
-0.0855,-0.002,0.0835,0.044,-0.0845,0.0405,0.1455,0.125,0.0965,0.1485,0.1115,0.142,-0.173,-0.04,0.0925
-0.0845,-0.002,0.082,0.0435,-0.0835,0.04,0.1465,0.125,0.0985,0.151,0.1135,0.1425,-0.172,-0.043,0.094
-0.0865,-0.0015,0.085,0.0445,-0.086,0.0415,0.1455,0.1255,0.097,0.1505,0.113,0.1425,-0.1725,-0.043,0.0945
-0.0925,-0.0035,0.0885,0.048,-0.0905,0.0425,0.1475,0.1275,0.0985,0.1525,0.115,0.144,-0.1735,-0.047,0.0925
-0.091,-0.0015,0.0895,0.0465,-0.0905,0.044,0.146,0.128,0.1,0.1535,0.1155,0.144,-0.1725,-0.044,0.091
-0.088,0.002,0.09,0.043,-0.089,0.046,0.1445,0.1275,0.098,0.1515,0.116,0.1445,-0.1705,-0.0405,0.0915
-0.0875,0.003,0.0905,0.0425,-0.089,0.047,0.1425,0.1275,0.0995,0.154,0.117,0.145,-0.169,-0.0395,0.0915
-0.0825,0.0085,0.091,0.037,-0.087,0.05,0.1385,0.127,0.099,0.1535,0.1145,0.1435,-0.168,-0.032,0.091
-0.078,0.014,0.092,0.032,-0.085,0.053,0.1395,0.125,0.0985,0.1515,0.1135,0.1415,-0.1675,-0.029,0.0895
-0.0765,0.013,0.09,0.032,-0.0835,0.0515,0.1375,0.124,0.098,0.151,0.1125,0.1415,-0.167,-0.031,0.089
-0.079,0.0125,0.092,0.0335,-0.0855,0.0525,0.138,0.1245,0.0985,0.1515,0.1125,0.1425,-0.166,-0.0295,0.09
-0.0815,0.0135,0.095,0.0345,-0.0885,0.0545,0.1405,0.1255,0.0995,0.152,0.1135,0.1425,-0.1655,-0.028,0.088
-0.0805,0.0135,0.094,0.034,-0.0875,0.054,0.137,0.1225,0.0975,0.1495,0.112,0.141,-0.166,-0.0255,0.09
-0.076,0.013,0.0895,0.0315,-0.083,0.0515,0.1345,0.1205,0.096,0.1475,0.1105,0.1395,-0.1655,-0.024,0.0915
-0.0755,0.0135,0.089,0.0315,-0.0825,0.0515,0.135,0.121,0.096,0.1475,0.111,0.1405,-0.1655,-0.0265,0.0915
-0.079,0.013,0.092,0.033,-0.0855,0.0525,0.1375,0.122,0.098,0.1485,0.1125,0.1415,-0.1655,-0.0295,0.093
-0.083,0.007,0.09,0.0385,-0.087,0.0485,0.1385,0.1235,0.1,0.1495,0.1125,0.142,-0.167,-0.035,0.094
-0.0865,0.002,0.0885,0.0425,-0.0875,0.045,0.1405,0.1245,0.101,0.1525,0.1135,0.144,-0.168,-0.036,0.0945
-0.089,-0.0005,0.088,0.045,-0.0885,0.044,0.1415,0.128,0.102,0.1545,0.1155,0.1445,-0.1685,-0.0375,0.094
-0.087,0.0025,0.089,0.0425,-0.088,0.0455,0.142,0.1275,0.102,0.154,0.1165,0.1455,-0.1685,-0.04,0.093
-0.0815,0.0055,0.087,0.0385,-0.0845,0.046,0.1415,0.1245,0.1025,0.154,0.1155,0.145,-0.1665,-0.036,0.092
-0.084,0,0.084,0.042,-0.0845,0.042,0.1385,0.1245,0.1015,0.1545,0.115,0.1445,-0.167,-0.039,0.0925
-0.089,-0.001,0.088,0.045,-0.0885,0.0435,0.141,0.1255,0.1035,0.1565,0.117,0.1455,-0.1675,-0.0395,0.0925
-0.092,-0.001,0.0915,0.0465,-0.092,0.0455,0.145,0.1295,0.1075,0.1585,0.12,0.147,-0.167,-0.04,0.0915
-0.09,0.0005,0.0905,0.045,-0.0905,0.0455,0.1435,0.1315,0.1075,0.16,0.12,0.1475,-0.166,-0.038,0.0915
-0.085,0.0045,0.0895,0.04,-0.087,0.047,0.1415,0.131,0.107,0.159,0.1195,0.1465,-0.1645,-0.0335,0.091
-0.079,0.009,0.088,0.0355,-0.084,0.0485,0.1415,0.1305,0.109,0.158,0.12,0.1465,-0.1635,-0.0325,0.0875
-0.0755,0.014,0.089,0.031,-0.0825,0.0515,0.14,0.129,0.1075,0.157,0.118,0.145,-0.163,-0.027,0.0865
-0.074,0.017,0.0915,0.029,-0.0835,0.0545,0.138,0.1285,0.106,0.1565,0.117,0.1435,-0.1635,-0.024,0.0865
-0.0725,0.0185,0.091,0.0275,-0.082,0.055,0.1375,0.1295,0.1055,0.1565,0.115,0.1435,-0.1625,-0.023,0.0865
-0.0755,0.0185,0.094,0.029,-0.085,0.0565,0.1385,0.1305,0.106,0.1575,0.1165,0.145,-0.162,-0.0225,0.0885
-0.0755,0.0215,0.0975,0.0275,-0.087,0.0595,0.14,0.131,0.108,0.158,0.1185,0.1445,-0.1635,-0.0225,0.085
-0.0735,0.0225,0.096,0.026,-0.085,0.059,0.1385,0.1295,0.1075,0.158,0.116,0.1435,-0.163,-0.0235,0.086
-0.07,0.0245,0.0945,0.023,-0.0825,0.0595,0.134,0.127,0.105,0.156,0.115,0.142,-0.1625,-0.0215,0.0875
-0.0675,0.025,0.0925,0.0215,-0.08,0.059,0.133,0.127,0.105,0.156,0.116,0.1415,-0.1635,-0.0215,0.0865
-0.0715,0.0205,0.092,0.0255,-0.082,0.0565,0.136,0.13,0.1065,0.16,0.117,0.1425,-0.164,-0.027,0.0885
-0.075,0.0145,0.09,0.0305,-0.083,0.0525,0.137,0.131,0.1075,0.159,0.1175,0.1415,-0.1665,-0.0315,0.088
-0.0785,0.0095,0.088,0.035,-0.084,0.049,0.1385,0.133,0.1095,0.16,0.1205,0.143,-0.1655,-0.0365,0.0875
-0.082,0.0065,0.0885,0.038,-0.0855,0.0475,0.1405,0.1325,0.1115,0.1625,0.121,0.145,-0.1665,-0.039,0.0865
-0.0815,0.0065,0.0875,0.0375,-0.0845,0.047,0.1405,0.132,0.111,0.1625,0.1205,0.1445,-0.165,-0.0405,0.088
-0.0775,0.009,0.087,0.0345,-0.0825,0.0485,0.1405,0.1325,0.112,0.163,0.122,0.1455,-0.1615,-0.036,0.089
-0.077,0.007,0.084,0.0355,-0.0805,0.0455,0.1395,0.1325,0.111,0.1605,0.1205,0.145,-0.164,-0.036,0.0895
-0.08,0.0035,0.083,0.0385,-0.082,0.043,0.1405,0.134,0.112,0.1625,0.1235,0.1455,-0.1635,-0.04,0.0885
-0.083,0.003,0.0855,0.04,-0.085,0.0445,0.145,0.137,0.1155,0.1665,0.1275,0.1485,-0.1635,-0.0405,0.0865
-0.083,0.004,0.0865,0.0395,-0.085,0.0455,0.145,0.139,0.114,0.165,0.1265,0.1495,-0.163,-0.04,0.086
-0.081,0.008,0.089,0.0365,-0.085,0.0485,0.145,0.137,0.1135,0.1655,0.1255,0.1475,-0.1625,-0.036,0.0845
-0.078,0.0135,0.0915,0.0325,-0.085,0.0525,0.1465,0.137,0.112,0.1655,0.1275,0.1485,-0.1615,-0.03,0.0835
-0.074,0.0195,0.094,0.0275,-0.0845,0.0565,0.144,0.1365,0.1085,0.164,0.1255,0.1475,-0.161,-0.0265,0.084
-0.0685,0.022,0.0905,0.0235,-0.08,0.0565,0.1415,0.135,0.1085,0.1635,0.1255,0.146,-0.1605,-0.026,0.0835
-0.0705,0.0205,0.091,0.0255,-0.081,0.056,0.139,0.1345,0.1075,0.164,0.127,0.148,-0.159,-0.028,0.083
-0.075,0.0195,0.095,0.028,-0.085,0.057,0.1405,0.1355,0.11,0.1655,0.125,0.1455,-0.161,-0.03,0.081
-0.075,0.0205,0.0955,0.0275,-0.0855,0.058,0.1425,0.1365,0.1105,0.1655,0.126,0.146,-0.1595,-0.028,0.0795
-0.0735,0.0225,0.096,0.026,-0.0855,0.0595,0.139,0.1335,0.1085,0.1645,0.124,0.1465,-0.159,-0.024,0.082
-0.0685,0.0245,0.093,0.0225,-0.081,0.0585,0.137,0.1335,0.109,0.165,0.124,0.144,-0.161,-0.0215,0.0805
-0.0695,0.023,0.092,0.0235,-0.081,0.0575,0.138,0.133,0.1085,0.166,0.1245,0.143,-0.1615,-0.022,0.0805
-0.0715,0.0195,0.091,0.026,-0.0815,0.0555,0.14,0.133,0.1095,0.1675,0.124,0.145,-0.162,-0.0255,0.082
-0.0755,0.0145,0.0905,0.0305,-0.0835,0.0525,0.143,0.1355,0.11,0.1685,0.127,0.1465,-0.1625,-0.031,0.082
-0.082,0.009,0.091,0.0365,-0.0865,0.05,0.1445,0.1365,0.111,0.17,0.1275,0.146,-0.1635,-0.0365,0.0825
-0.083,0.0065,0.089,0.0385,-0.086,0.0475,0.145,0.1385,0.113,0.173,0.1285,0.1485,-0.1635,-0.0385,0.0825
-0.083,0.0065,0.0895,0.0385,-0.0865,0.048,0.145,0.1375,0.1125,0.173,0.127,0.1475,-0.1635,-0.035,0.082
-0.0785,0.009,0.0875,0.035,-0.083,0.048,0.145,0.138,0.112,0.1735,0.1265,0.147,-0.163,-0.0295,0.0805
-0.074,0.0095,0.0845,0.0325,-0.0795,0.047,0.142,0.1375,0.1125,0.1725,0.126,0.1485,-0.1625,-0.03,0.0815
-0.0755,0.0095,0.085,0.0335,-0.0805,0.0475,0.1415,0.1395,0.1135,0.1725,0.1265,0.148,-0.1625,-0.0325,0.082
-0.0815,0.0085,0.09,0.0365,-0.086,0.049,0.147,0.144,0.1175,0.1765,0.1315,0.151,-0.1625,-0.033,0.08
